#Date: 22-Nov-2017 01:07:12
#
#Memory Allocation:
#	Parameter memory: 276 bytes. p -> 0xb6f98000
#	Lookup table memory: 2000 bytes. l -> 0xb6f97000
#	Data memory: 1200 bytes. s -> 0xb6f96000
#
#Parameters:
#	Frq = 1000 (Hz)
#
#Filter Coefficients (N = 1):
#	b[0] : 0.01850891	a[0] : 1.00000000
#	b[1] : 0.01850891	a[1] : -0.96299744
#
# frame	emg_raw
7301	818.546
7302	780.740
7303	801.841
7304	810.193
7305	766.672
7306	810.193
7307	835.690
7308	815.908
7309	787.334
7310	801.401
7311	817.667
7312	787.334
7313	826.019
7314	844.043
7315	808.875
7316	833.053
7317	836.570
7318	815.908
7319	794.368
7320	802.280
7321	801.401
7322	769.310
7323	809.754
7324	828.657
7325	791.290
7326	820.744
7327	838.328
7328	826.019
7329	811.952
7330	822.502
7331	824.700
7332	789.971
7333	816.787
7334	829.976
7335	784.257
7336	809.314
7337	801.841
7338	787.334
7339	827.338
7340	791.290
7341	813.710
7342	812.391
7343	787.334
7344	831.294
7345	800.082
7346	810.193
7347	822.502
7348	812.391
7349	801.401
7350	829.536
7351	837.009
7352	801.401
7353	822.502
7354	831.294
7355	793.049
7356	815.469
7357	826.019
7358	794.807
7359	801.401
7360	818.985
7361	815.908
7362	791.290
7363	817.667
7364	829.976
7365	789.092
7366	815.908
7367	829.976
7368	794.807
7369	790.851
7370	815.908
7371	829.536
7372	787.334
7373	826.898
7374	794.368
7375	837.009
7376	801.401
7377	848.879
7378	801.401
7379	837.449
7380	787.334
7381	829.536
7382	775.904
7383	815.469
7384	773.266
7385	815.469
7386	776.344
7387	815.908
7388	761.837
7389	815.469
7390	784.257
7391	834.811
7392	805.358
7393	818.546
7394	808.875
7395	822.502
7396	844.043
7397	852.835
7398	844.043
7399	836.570
7400	822.942
7401	826.459
7402	808.875
7403	815.908
7404	801.841
7405	815.908
7406	815.908
7407	831.734
7408	822.942
7409	824.700
7410	801.841
7411	815.908
7412	788.213
7413	805.358
7414	787.773
7415	800.962
7416	787.773
7417	796.126
7418	775.464
7419	799.643
7420	794.807
7421	815.469
7422	791.290
7423	803.160
7424	773.706
7425	810.193
7426	793.049
7427	838.328
7428	808.875
7429	843.603
7430	791.290
7431	815.469
7432	773.706
7433	801.401
7434	765.793
7435	813.710
7436	773.706
7437	829.536
7438	780.300
7439	838.328
7440	799.643
7441	847.999
7442	801.401
7443	837.449
7444	799.643
7445	841.845
7446	794.368
7447	829.536
7448	776.783
7449	815.469
7450	775.025
7451	833.932
7452	808.435
7453	846.241
7454	801.401
7455	831.734
7456	801.401
7457	829.976
7458	808.435
7459	829.976
7460	815.469
7461	822.942
7462	811.073
7463	815.908
7464	797.884
7465	798.324
7466	808.435
7467	808.875
7468	815.908
7469	794.807
7470	801.401
7471	787.773
7472	818.985
7473	801.841
7474	836.570
7475	801.841
7476	832.613
7477	798.324
7478	843.603
7479	794.368
7480	829.536
7481	776.783
7482	818.985
7483	773.706
7484	822.502
7485	787.334
7486	844.043
7487	796.126
7488	824.261
7489	794.368
7490	829.976
7491	801.401
7492	829.976
7493	808.435
7494	829.976
7495	782.059
7496	830.415
7497	785.575
7498	827.778
7499	787.334
7500	826.459
7501	787.334
7502	815.908
7503	787.334
7504	822.942
7505	810.193
7506	829.976
7507	815.469
7508	819.425
7509	822.502
7510	815.908
7511	813.710
7512	794.368
7513	806.677
7514	794.807
7515	819.865
7516	791.290
7517	824.261
7518	798.324
7519	843.603
7520	801.841
7521	836.570
7522	764.914
7523	801.401
7524	761.837
7525	818.546
7526	783.817
7527	829.976
7528	808.435
7529	833.492
7530	815.469
7531	833.492
7532	820.744
7533	829.976
7534	831.294
7535	829.976
7536	829.976
7537	801.841
7538	812.831
7539	787.773
7540	801.401
7541	773.706
7542	793.488
7543	763.156
7544	811.952
7545	775.464
7546	818.985
7547	787.773
7548	829.536
7549	787.773
7550	833.492
7551	781.179
7552	827.778
7553	787.334
7554	836.570
7555	794.368
7556	832.613
7557	801.401
7558	829.976
7559	811.952
7560	819.425
7561	808.435
7562	808.875
7563	815.469
7564	805.358
7565	816.787
7566	796.566
7567	813.710
7568	789.532
7569	815.469
7570	775.464
7571	808.435
7572	775.025
7573	811.952
7574	767.112
7575	821.623
7576	783.817
7577	836.130
7578	787.334
7579	844.043
7580	829.536
7581	865.144
7582	843.603
7583	847.560
7584	827.778
7585	815.908
7586	806.677
7587	791.290
7588	804.918
7589	794.807
7590	808.435
7591	801.841
7592	815.908
7593	808.875
7594	836.570
7595	815.908
7596	833.053
7597	794.807
7598	812.391
7599	801.841
7600	817.227
7601	787.773
7602	810.193
7603	763.595
7604	807.116
7605	777.223
7606	818.985
7607	778.542
7608	825.140
7609	780.300
7610	831.734
7611	773.266
7612	801.841
7613	780.300
7614	829.976
7615	836.570
7616	847.560
7617	843.603
7618	815.908
7619	817.667
7620	787.773
7621	797.884
7622	780.740
7623	809.314
7624	787.773
7625	818.985
7626	789.971
7627	831.294
7628	789.971
7629	833.053
7630	797.884
7631	843.603
7632	794.368
7633	837.449
7634	794.368
7635	827.338
7636	796.126
7637	822.502
7638	808.875
7639	819.425
7640	811.952
7641	801.841
7642	804.039
7643	787.773
7644	808.875
7645	787.773
7646	829.976
7647	787.773
7648	796.126
7649	762.276
7650	822.502
7651	798.764
7652	841.845
7653	812.391
7654	864.704
7655	828.657
7656	866.463
7657	801.401
7658	826.459
7659	787.334
7660	819.425
7661	808.435
7662	819.425
7663	813.710
7664	822.942
7665	824.261
7666	808.875
7667	818.106
7668	787.773
7669	812.831
7670	779.421
7671	814.589
7672	773.706
7673	818.985
7674	776.783
7675	815.469
7676	771.068
7677	810.193
7678	785.575
7679	829.976
7680	815.469
7681	833.492
7682	815.469
7683	822.942
7684	829.096
7685	817.667
7686	815.908
7687	791.290
7688	810.633
7689	787.773
7690	810.193
7691	778.981
7692	806.677
7693	765.354
7694	822.502
7695	801.401
7696	859.869
7697	818.985
7698	846.241
7699	764.474
7700	815.469
7701	779.421
7702	824.261
7703	780.300
7704	822.942
7705	790.851
7706	829.976
7707	808.435
7708	829.976
7709	815.469
7710	815.908
7711	833.492
7712	822.942
7713	844.043
7714	808.875
7715	815.469
7716	759.639
7717	801.401
7718	783.817
7719	836.570
7720	787.773
7721	837.009
7722	801.401
7723	840.526
7724	822.502
7725	837.009
7726	832.174
7727	815.908
7728	815.469
7729	794.807
7730	815.469
7731	787.773
7732	815.469
7733	775.025
7734	818.985
7735	773.266
7736	813.710
7737	772.387
7738	815.469
7739	787.334
7740	821.183
7741	815.469
7742	822.942
7743	822.942
7744	808.875
7745	821.623
7746	794.368
7747	821.183
7748	791.290
7749	822.502
7750	789.532
7751	833.053
7752	783.817
7753	826.898
7754	787.334
7755	825.140
7756	797.884
7757	822.942
7758	811.952
7759	815.908
7760	809.754
7761	801.841
7762	815.908
7763	796.566
7764	826.019
7765	789.532
7766	827.778
7767	784.696
7768	827.778
7769	773.266
7770	798.324
7771	759.199
7772	824.700
7773	836.570
7774	879.211
7775	868.221
7776	837.009
7777	821.183
7778	801.841
7779	815.469
7780	787.773
7781	808.435
7782	768.870
7783	808.435
7784	767.991
7785	815.469
7786	787.334
7787	827.338
7788	801.401
7789	822.942
7790	815.469
7791	822.942
7792	826.459
7793	808.875
7794	817.227
7795	798.324
7796	817.227
7797	787.773
7798	826.019
7799	786.455
7800	834.811
7801	767.991
7802	810.193
7803	780.300
7804	815.469
7805	776.783
7806	833.053
7807	801.401
7808	837.009
7809	811.952
7810	826.459
7811	813.710
7812	811.073
7813	815.908
7814	801.841
7815	817.227
7816	789.532
7817	822.502
7818	782.938
7819	829.536
7820	786.015
7821	827.778
7822	799.643
7823	833.492
7824	818.985
7825	829.976
7826	821.623
7827	801.841
7828	814.150
7829	787.773
7830	812.831
7831	774.585
7832	813.710
7833	778.542
7834	826.459
7835	780.300
7836	829.976
7837	806.677
7838	829.976
7839	821.623
7840	819.425
7841	809.754
7842	787.773
7843	784.696
7844	748.209
7845	798.764
7846	794.807
7847	871.738
7848	845.362
7849	886.245
7850	829.096
7851	845.801
7852	817.667
7853	816.348
7854	808.435
7855	794.807
7856	800.962
7857	787.773
7858	811.512
7859	787.773
7860	818.985
7861	782.498
7862	833.053
7863	794.368
7864	835.251
7865	801.401
7866	829.976
7867	808.435
7868	815.908
7869	806.677
7870	787.773
7871	801.841
7872	787.773
7873	806.677
7874	780.740
7875	801.401
7876	748.649
7877	815.469
7878	801.401
7879	873.057
7880	850.637
7881	872.178
7882	849.758
7883	833.492
7884	818.985
7885	794.807
7886	803.160
7887	780.740
7888	808.435
7889	775.464
7890	815.469
7891	776.783
7892	830.415
7893	801.401
7894	831.734
7895	808.435
7896	817.667
7897	813.710
7898	808.875
7899	815.908
7900	801.841
7901	818.985
7902	778.981
7903	815.469
7904	759.639
7905	804.918
7906	780.740
7907	815.469
7908	784.696
7909	840.087
7910	801.401
7911	856.352
7912	829.536
7913	833.492
7914	807.995
7915	798.324
7916	807.995
7917	801.841
7918	815.469
7919	778.981
7920	815.469
7921	784.257
7922	841.845
7923	801.401
7924	847.999
7925	804.918
7926	833.932
7927	808.435
7928	815.908
7929	801.401
7930	791.290
7931	808.875
7932	787.773
7933	813.710
7934	778.542
7935	809.314
7936	759.199
7937	814.589
7938	778.542
7939	815.908
7940	794.368
7941	829.976
7942	831.294
7943	844.043
7944	851.077
7945	829.536
7946	848.879
7947	815.908
7948	841.845
7949	795.686
7950	833.053
7951	783.817
7952	821.183
7953	776.783
7954	814.150
7955	801.401
7956	798.324
7957	792.169
7958	794.807
7959	814.150
7960	796.566
7961	820.744
7962	780.740
7963	826.019
7964	789.092
7965	850.197
7966	815.469
7967	829.976
7968	797.884
7969	805.358
7970	815.908
7971	801.841
7972	813.271
7973	791.290
7974	817.227
7975	787.773
7976	836.570
7977	794.368
7978	837.009
7979	794.368
7980	829.976
7981	808.435
7982	829.976
7983	824.261
7984	815.908
7985	815.908
7986	787.773
7987	811.073
7988	778.981
7989	826.019
7990	787.334
7991	835.251
7992	794.368
7993	829.976
7994	815.469
7995	829.976
7996	833.492
7997	819.425
7998	829.976
7999	798.324
8000	821.623
8001	780.740
8002	811.952
8003	760.958
8004	810.633
8005	773.266
8006	813.271
8007	757.441
8008	815.469
8009	794.368
8010	837.009
8011	808.435
8012	791.290
8013	801.841
8014	815.908
8015	860.308
8016	837.009
8017	854.154
8018	790.851
8019	822.502
8020	773.266
8021	807.116
8022	780.300
8023	801.841
8024	804.478
8025	801.841
8026	818.985
8027	798.324
8028	833.053
8029	796.566
8030	843.603
8031	790.851
8032	831.294
8033	799.643
8034	844.043
8035	831.294
8036	822.942
8037	825.140
8038	815.908
8039	833.053
8040	798.324
8041	822.502
8042	780.300
8043	818.985
8044	776.783
8045	811.952
8046	801.401
8047	819.425
8048	815.469
8049	798.324
8050	808.875
8051	791.290
8052	818.985
8053	787.773
8054	829.536
8055	780.300
8056	826.019
8057	787.334
8058	826.459
8059	811.952
8060	822.942
8061	817.227
8062	799.643
8063	815.469
8064	794.807
8065	831.294
8066	785.136
8067	808.435
8068	759.199
8069	822.942
8070	815.469
8071	858.110
8072	840.087
8073	829.976
8074	823.821
8075	794.807
8076	815.029
8077	775.464
8078	808.435
8079	780.740
8080	843.603
8081	813.710
8082	840.526
8083	813.710
8084	808.875
8085	805.358
8086	787.773
8087	801.401
8088	775.464
8089	818.985
8090	775.025
8091	822.063
8092	787.334
8093	829.976
8094	818.985
8095	815.908
8096	815.908
8097	805.358
8098	840.087
8099	808.875
8100	839.207
8101	792.609
8102	836.570
8103	794.368
8104	816.348
8105	787.334
8106	801.841
8107	794.368
8108	787.773
8109	787.334
8110	815.908
8111	822.502
8112	805.358
8113	831.294
8114	812.391
8115	843.603
8116	794.368
8117	813.271
8118	745.132
8119	801.841
8120	821.183
8121	851.077
8122	855.473
8123	822.942
8124	820.744
8125	777.223
8126	820.744
8127	775.464
8128	815.469
8129	780.740
8130	818.985
8131	791.730
8132	843.603
8133	801.401
8134	829.976
8135	804.918
8136	808.875
8137	801.841
8138	787.773
8139	810.193
8140	778.981
8141	822.502
8142	766.233
8143	815.469
8144	794.368
8145	840.526
8146	836.570
8147	844.043
8148	844.922
8149	815.908
8150	817.227
8151	773.706
8152	816.348
8153	784.257
8154	847.560
8155	815.469
8156	837.009
8157	815.469
8158	808.875
8159	807.116
8160	787.773
8161	811.952
8162	776.344
8163	817.227
8164	780.740
8165	826.459
8166	797.884
8167	815.908
8168	812.831
8169	801.841
8170	819.865
8171	777.223
8172	810.193
8173	780.300
8174	833.053
8175	797.884
8176	821.183
8177	810.193
8178	822.942
8179	834.372
8180	801.841
8181	810.193
8182	754.363
8183	801.401
8184	783.817
8185	833.932
8186	808.435
8187	835.690
8188	824.261
8189	844.043
8190	832.613
8191	808.875
8192	816.348
8193	777.223
8194	813.710
8195	741.615
8196	804.918
8197	797.884
8198	866.902
8199	871.738
8200	872.178
8201	856.792
8202	805.358
8203	811.952
8204	764.914
8205	813.710
8206	778.542
8207	827.338
8208	801.401
8209	822.942
8210	817.227
8211	805.358
8212	806.677
8213	815.908
8214	808.875
8215	787.773
8216	804.039
8217	764.914
8218	827.778
8219	811.952
8220	844.043
8221	810.193
8222	819.425
8223	811.952
8224	798.324
8225	811.073
8226	780.740
8227	815.469
8228	762.716
8229	794.368
8230	769.750
8231	826.459
8232	829.536
8233	837.009
8234	835.251
8235	808.875
8236	822.942
8237	787.773
8238	822.502
8239	766.233
8240	827.338
8241	808.435
8242	787.773
8243	799.643
8244	844.043
8245	878.772
8246	864.704
8247	873.497
8248	813.271
8249	833.053
8250	773.266
8251	813.271
8252	794.368
8253	791.290
8254	789.092
8255	791.290
8256	804.918
8257	789.532
8258	857.671
8259	835.690
8260	868.661
8261	840.526
8262	831.734
8263	813.710
8264	763.156
8265	769.750
8266	761.397
8267	829.536
8268	793.488
8269	823.821
8270	788.213
8271	801.841
8272	801.401
8273	794.807
8274	815.469
8275	770.189
8276	815.469
8277	787.334
8278	847.560
8279	826.019
8280	844.043
8281	820.744
8282	801.841
8283	799.643
8284	766.672
8285	811.952
8286	773.266
8287	825.140
8288	729.745
8289	773.706
8290	822.502
8291	872.178
8292	880.091
8293	829.976
8294	831.294
8295	741.615
8296	796.566
8297	822.502
8298	865.144
8299	875.255
8300	854.594
8301	861.188
8302	812.391
8303	815.469
8304	777.223
8305	841.845
8306	808.435
8307	815.908
8308	787.334
8309	773.706
8310	782.498
8311	745.571
8312	787.334
8313	732.383
8314	776.783
8315	758.320
8316	815.469
8317	787.334
8318	820.304
8319	773.266
8320	823.381
8321	869.540
8322	865.144
8323	860.308
8324	796.566
8325	745.132
8326	731.064
8327	844.043
8328	857.671
8329	865.144
8330	830.415
8331	805.358
8332	815.469
8333	768.431
8334	808.435
8335	772.387
8336	824.700
8337	822.502
8338	847.560
8339	829.536
8340	806.237
8341	782.059
8342	736.779
8343	850.637
8344	850.637
8345	893.279
8346	857.671
8347	854.594
8348	837.009
8349	801.841
8350	801.401
8351	761.397
8352	797.884
8353	761.837
8354	800.082
8355	759.199
8356	719.195
8357	751.286
8358	801.841
8359	840.966
8360	798.324
8361	826.019
8362	763.156
8363	826.898
8364	827.778
8365	858.110
8366	815.469
8367	794.807
8368	848.439
8369	834.372
8370	847.560
8371	739.856
8372	808.435
8373	841.845
8374	866.902
8375	815.469
8376	777.223
8377	781.179
8378	755.682
8379	801.401
8380	783.817
8381	850.197
8382	840.087
8383	854.594
8384	834.811
8385	817.667
8386	824.700
8387	766.672
8388	807.116
8389	787.334
8390	827.338
8391	780.300
8392	829.976
8393	841.845
8394	815.908
8395	804.918
8396	822.063
8397	869.980
8398	804.918
8399	806.237
8400	759.199
8401	794.807
8402	790.851
8403	787.773
8404	801.401
8405	794.807
8406	840.087
8407	806.677
8408	871.299
8409	829.536
8410	815.908
8411	798.324
8412	801.841
8413	810.193
8414	787.773
8415	757.441
8416	675.234
8417	774.146
8418	815.908
8419	885.806
8420	808.875
8421	754.363
8422	801.401
8423	886.245
8424	842.724
8425	880.970
8426	860.308
8427	822.942
8428	865.144
8429	808.435
8430	830.415
8431	787.334
8432	837.009
8433	814.589
8434	763.156
8435	745.132
8436	759.639
8437	829.536
8438	804.918
8439	834.372
8440	782.938
8441	805.358
8442	813.710
8443	815.908
8444	833.053
8445	801.841
8446	757.880
8447	703.809
8448	852.396
8449	870.859
8450	903.829
8451	843.603
8452	815.908
8453	807.116
8454	787.773
8455	792.609
8456	765.793
8457	857.671
8458	864.704
8459	928.447
8460	618.525
8461	656.331
8462	873.057
8463	907.346
8464	896.356
8465	808.875
8466	797.005
8467	745.132
8468	767.552
8469	759.199
8470	780.740
8471	795.247
8472	763.156
8473	769.750
8474	778.981
8475	876.134
8476	836.570
8477	845.801
8478	788.213
8479	837.009
8480	953.065
8481	917.897
8482	854.154
8483	778.981
8484	885.806
8485	804.918
8486	798.324
8487	731.064
8488	724.470
8489	738.538
8490	759.639
8491	801.401
8492	749.528
8493	718.755
8494	731.064
8495	886.245
8496	892.839
8497	914.380
8498	864.704
8499	819.425
8500	782.059
8501	767.552
8502	840.087
8503	826.459
8504	879.651
8505	822.502
8506	833.492
8507	836.130
8508	801.841
8509	815.469
8510	775.025
8511	856.792
8512	773.266
8513	766.672
8514	491.919
8515	640.066
8516	890.202
8517	949.548
8518	933.283
8519	844.043
8520	854.154
8521	821.623
8522	840.087
8523	787.334
8524	822.502
8525	801.401
8526	815.908
8527	787.773
8528	801.401
8529	847.120
8530	805.797
8531	861.188
8532	804.918
8533	837.009
8534	826.019
8535	791.290
8536	775.025
8537	766.233
8538	838.328
8539	794.368
8540	826.898
8541	780.300
8542	791.290
8543	792.609
8544	773.706
8545	797.005
8546	787.773
8547	848.879
8548	829.536
8549	774.585
8550	794.368
8551	946.031
8552	931.525
8553	844.043
8554	800.962
8555	735.900
8556	787.334
8557	748.649
8558	773.706
8559	780.300
8560	815.908
8561	808.875
8562	777.223
8563	822.502
8564	789.092
8565	836.570
8566	794.368
8567	822.942
8568	814.589
8569	815.908
8570	840.526
8571	780.740
8572	811.952
8573	786.455
8574	850.637
8575	828.657
8576	837.009
8577	833.932
8578	815.908
8579	826.019
8580	787.773
8581	815.469
8582	755.682
8583	837.009
8584	822.502
8585	801.841
8586	787.773
8587	731.504
8588	810.193
8589	800.962
8590	857.671
8591	808.435
8592	851.077
8593	826.019
8594	822.942
8595	826.898
8596	801.841
8597	836.570
8598	814.150
8599	866.463
8600	829.536
8601	865.144
8602	841.845
8603	858.110
8604	784.257
8605	735.021
8606	811.952
8607	782.938
8608	764.474
8609	583.357
8610	627.757
8611	928.008
8612	965.814
8613	869.100
8614	791.290
8615	797.445
8616	780.300
8617	822.502
8618	755.682
8619	801.841
8620	836.570
8621	822.063
8622	811.952
8623	822.942
8624	839.207
8625	815.908
8626	831.294
8627	790.851
8628	843.603
8629	787.334
8630	798.324
8631	782.938
8632	759.639
8633	796.126
8634	781.179
8635	836.570
8636	801.401
8637	845.362
8638	841.845
8639	794.807
8640	789.532
8641	791.290
8642	847.120
8643	799.643
8644	830.415
8645	861.188
8646	900.312
8647	876.134
8648	844.043
8649	835.251
8650	801.841
8651	720.514
8652	786.015
8653	906.907
8654	836.570
8655	780.740
8656	775.904
8657	766.672
8658	788.653
8659	731.504
8660	775.025
8661	731.064
8662	685.785
8663	776.783
8664	815.908
8665	930.645
8666	949.548
8667	899.873
8668	822.502
8669	863.825
8670	797.884
8671	809.754
8672	776.783
8673	745.571
8674	746.890
8675	745.571
8676	798.764
8677	787.334
8678	850.637
8679	864.704
8680	854.594
8681	811.952
8682	752.605
8683	553.903
8684	710.403
8685	910.423
8686	872.617
8687	885.806
8688	843.603
8689	875.695
8690	857.671
8691	829.976
8692	873.497
8693	829.976
8694	864.704
8695	813.710
8696	844.043
8697	801.401
8698	794.807
8699	784.257
8700	759.639
8701	783.817
8702	755.243
8703	811.952
8704	829.976
8705	878.772
8706	751.726
8707	629.515
8708	811.952
8709	910.863
8710	684.026
8711	569.729
8712	942.515
8713	1026.479
8714	872.178
8715	880.530
8716	854.594
8717	878.772
8718	794.368
8719	787.773
8720	764.474
8721	803.599
8722	807.556
8723	724.470
8724	894.598
8725	977.244
8726	925.370
8727	797.884
8728	808.875
8729	786.455
8730	742.054
8731	736.340
8732	703.369
8733	764.035
8734	495.436
8735	680.510
8736	898.554
8737	901.192
8738	872.178
8739	808.875
8740	843.603
8741	818.985
8742	837.009
8743	741.615
8744	865.144
8745	912.621
8746	863.386
8747	854.154
8748	778.542
8749	826.019
8750	787.334
8751	829.976
8752	815.469
8753	829.976
8754	634.791
8755	492.358
8756	724.031
8757	869.100
8758	910.423
8759	829.536
8760	804.918
8761	815.469
8762	886.245
8763	928.008
8764	872.178
8765	980.760
8766	912.182
8767	910.863
8768	843.603
8769	802.280
8770	868.221
8771	805.358
8772	778.542
8773	753.045
8774	801.401
8775	755.682
8776	777.223
8777	723.591
8778	675.234
8779	675.234
8780	661.167
8781	736.340
8782	757.441
8783	754.363
8784	759.199
8785	960.099
8786	976.364
8787	730.625
8788	854.154
8789	720.514
8790	865.144
8791	977.244
8792	967.133
8793	851.956
8794	787.773
8795	788.213
8796	759.639
8797	801.401
8798	799.643
8799	837.888
8800	801.401
8801	805.358
8802	795.686
8803	759.639
8804	737.219
8805	620.284
8806	818.985
8807	959.659
8808	984.717
8809	885.806
8810	851.077
8811	829.976
8812	829.976
8813	977.244
8814	900.312
8815	727.547
8816	618.525
8817	749.967
8818	759.199
8819	745.571
8820	720.953
8821	731.504
8822	798.764
8823	760.958
8824	801.401
8825	782.059
8826	853.714
8827	864.704
8828	900.312
8829	836.570
8830	773.706
8831	626.438
8832	798.324
8833	998.345
8834	951.746
8835	880.091
8836	773.266
8837	782.498
8838	826.019
8839	801.841
8840	773.706
8841	740.296
8842	828.657
8843	822.502
8844	861.627
8845	836.570
8846	625.999
8847	786.894
8848	921.414
8849	931.525
8850	807.556
8851	875.255
8852	847.120
8853	766.672
8854	774.146
8855	844.043
8856	690.181
8857	696.335
8858	868.221
8859	836.570
8860	876.134
8861	837.009
8862	822.942
8863	780.740
8864	633.032
8865	806.677
8866	880.970
8867	862.946
8868	731.064
8869	802.720
8870	854.594
8871	896.796
8872	896.356
8873	829.976
8874	806.677
8875	769.750
8876	854.154
8877	787.334
8878	793.049
8879	783.817
8880	731.504
8881	752.605
8882	764.914
8883	751.726
8884	759.199
8885	847.560
8886	898.115
8887	900.312
8888	855.033
8889	805.358
8890	803.160
8891	780.740
8892	829.536
8893	762.716
8894	494.117
8895	709.963
8896	1040.986
8897	917.457
8898	852.835
8899	951.746
8900	847.120
8901	809.314
8902	822.502
8903	914.819
8904	882.728
8905	815.908
8906	765.354
8907	678.751
8908	625.559
8909	632.153
8910	771.948
8911	801.401
8912	844.043
8913	831.734
8914	844.043
8915	973.727
8916	917.457
8917	963.616
8918	857.671
8919	833.053
8920	814.589
8921	787.773
8922	783.817
8923	724.470
8924	748.649
8925	594.347
8926	667.761
8927	915.699
8928	1004.499
8929	804.039
8930	764.474
8931	724.031
8932	752.605
8933	751.726
8934	752.605
8935	822.502
8936	826.898
8937	913.940
8938	843.603
8939	759.639
8940	837.888
8941	703.369
8942	381.578
8943	727.547
8944	1116.159
8945	1005.378
8946	907.346
8947	843.603
8948	775.464
8949	783.377
8950	861.627
8951	843.603
8952	776.783
8953	900.312
8954	896.356
8955	998.784
8956	820.744
8957	875.695
8958	854.154
8959	826.459
8960	963.176
8961	815.908
8962	703.369
8963	660.727
8964	775.464
8965	709.963
8966	720.953
8967	738.098
8968	745.571
8969	815.469
8970	900.312
8971	668.201
8972	731.504
8973	504.228
8974	691.060
8975	935.041
8976	822.063
8977	820.304
8978	857.671
8979	956.582
8980	982.079
8981	977.683
8982	998.345
8983	857.671
8984	829.976
8985	804.918
8986	913.940
8987	934.162
8988	807.116
8989	731.064
8990	667.761
8991	665.563
8992	618.525
8993	647.100
8994	698.094
8995	756.122
8996	829.976
8997	794.368
8998	835.251
8999	759.199
9000	492.358
9001	615.448
9002	1090.222
9003	1244.524
9004	1000.103
9005	682.708
9006	822.502
9007	1002.301
9008	808.435
9009	847.560
9010	993.509
9011	745.571
9012	646.660
9013	833.053
9014	942.515
9015	821.623
9016	745.571
9017	717.437
9018	622.482
9019	718.755
9020	664.244
9021	650.177
9022	752.165
9023	889.762
9024	862.506
9025	844.043
9026	790.411
9027	852.396
9028	931.525
9029	857.671
9030	877.893
9031	836.570
9032	808.875
9033	906.467
9034	917.897
9035	857.671
9036	585.994
9037	783.817
9038	980.760
9039	861.627
9040	810.193
9041	717.437
9042	801.401
9043	661.167
9044	673.036
9045	847.120
9046	1011.093
9047	998.345
9048	819.425
9049	790.851
9050	889.762
9051	899.873
9052	755.682
9053	651.056
9054	674.795
9055	829.976
9056	856.352
9057	647.100
9058	665.123
9059	793.488
9060	895.477
9061	844.483
9062	851.077
9063	857.671
9064	844.043
9065	778.542
9066	736.779
9067	885.806
9068	815.469
9069	822.942
9070	815.469
9071	817.227
9072	850.197
9073	815.908
9074	857.671
9075	834.811
9076	909.105
9077	731.064
9078	829.976
9079	737.219
9080	675.234
9081	871.738
9082	942.954
9083	981.640
9084	766.233
9085	689.302
9086	688.423
9087	633.032
9088	676.993
9089	815.908
9090	949.109
9091	794.368
9092	774.585
9093	818.985
9094	900.312
9095	849.758
9096	762.716
9097	850.637
9098	766.233
9099	856.352
9100	871.738
9101	844.043
9102	822.502
9103	775.464
9104	804.039
9105	783.817
9106	888.883
9107	940.317
9108	935.481
9109	744.252
9110	787.773
9111	892.839
9112	650.177
9113	769.750
9114	671.278
9115	787.773
9116	812.391
9117	766.672
9118	843.603
9119	858.990
9120	808.875
9121	882.728
9122	937.239
9123	800.522
9124	738.538
9125	730.625
9126	760.518
9127	871.738
9128	843.603
9129	823.821
9130	785.575
9131	791.290
9132	686.664
9133	629.515
9134	880.091
9135	900.312
9136	899.873
9137	745.132
9138	829.976
9139	864.704
9140	858.110
9141	824.700
9142	787.773
9143	752.165
9144	775.025
9145	858.110
9146	843.603
9147	868.661
9148	769.750
9149	578.521
9150	928.008
9151	1002.301
9152	917.457
9153	831.294
9154	865.144
9155	829.536
9156	773.706
9157	574.125
9158	668.201
9159	1005.378
9160	1026.479
9161	931.525
9162	794.368
9163	759.639
9164	701.611
9165	724.470
9166	801.401
9167	667.761
9168	617.646
9169	709.963
9170	830.415
9171	837.888
9172	819.425
9173	864.704
9174	743.373
9175	849.318
9176	935.041
9177	903.829
9178	852.835
9179	766.672
9180	727.108
9181	801.401
9182	865.144
9183	794.368
9184	812.391
9185	847.999
9186	847.560
9187	660.727
9188	692.379
9189	1035.711
9190	984.277
9191	886.245
9192	817.667
9193	724.470
9194	769.750
9195	759.199
9196	821.183
9197	783.817
9198	773.706
9199	747.330
9200	738.538
9201	828.657
9202	707.326
9203	956.142
9204	899.873
9205	901.631
9206	849.318
9207	1056.812
9208	999.224
9209	798.324
9210	745.132
9211	731.064
9212	722.712
9213	547.749
9214	633.032
9215	715.678
9216	711.282
9217	776.783
9218	773.266
9219	743.813
9220	857.671
9221	956.582
9222	713.920
9223	795.686
9224	989.552
9225	910.423
9226	880.970
9227	822.502
9228	858.110
9229	854.594
9230	815.908
9231	836.570
9232	813.710
9233	857.231
9234	811.952
9235	815.908
9236	801.841
9237	854.594
9238	837.009
9239	829.976
9240	684.466
9241	619.844
9242	857.671
9243	947.350
9244	903.829
9245	794.807
9246	815.908
9247	801.401
9248	524.010
9249	688.862
9250	815.469
9251	851.077
9252	674.795
9253	654.133
9254	886.685
9255	873.057
9256	899.873
9257	868.221
9258	937.239
9259	931.525
9260	900.312
9261	872.178
9262	829.976
9263	868.221
9264	794.368
9265	812.391
9266	782.059
9267	759.639
9268	766.233
9269	724.910
9270	752.165
9271	623.801
9272	840.526
9273	917.457
9274	921.414
9275	908.665
9276	835.251
9277	836.570
9278	743.373
9279	747.330
9280	729.306
9281	735.021
9282	790.851
9283	785.575
9284	845.801
9285	833.053
9286	865.144
9287	840.087
9288	858.110
9289	695.896
9290	715.239
9291	888.883
9292	956.142
9293	921.414
9294	835.251
9295	754.363
9296	766.233
9297	742.054
9298	760.958
9299	724.031
9300	724.470
9301	818.546
9302	847.560
9303	843.603
9304	783.377
9305	790.851
9306	646.660
9307	761.397
9308	809.754
9309	851.077
9310	913.940
9311	888.004
9312	873.936
9313	854.154
9314	879.211
9315	873.497
9316	844.043
9317	857.671
9318	739.856
9319	786.015
9320	646.660
9321	787.773
9322	948.229
9323	942.515
9324	871.738
9325	773.706
9326	804.039
9327	752.165
9328	787.773
9329	786.455
9330	752.605
9331	778.542
9332	782.498
9333	850.637
9334	804.918
9335	812.391
9336	801.401
9337	787.773
9338	801.401
9339	773.706
9340	799.643
9341	755.243
9342	822.502
9343	826.019
9344	872.178
9345	847.120
9346	816.348
9347	831.294
9348	791.290
9349	835.690
9350	792.609
9351	826.459
9352	818.985
9353	812.391
9354	818.985
9355	778.542
9356	818.985
9357	794.368
9358	833.492
9359	815.469
9360	801.841
9361	804.918
9362	759.639
9363	822.502
9364	792.609
9365	740.296
9366	797.884
9367	829.976
9368	873.497
9369	833.492
9370	873.936
9371	822.502
9372	822.942
9373	794.368
9374	777.223
9375	774.146
9376	738.977
9377	801.401
9378	794.368
9379	851.077
9380	836.570
9381	829.976
9382	843.603
9383	816.787
9384	848.879
9385	787.334
9386	801.841
9387	773.706
9388	773.706
9389	809.314
9390	803.160
9391	843.603
9392	811.952
9393	844.043
9394	818.985
9395	803.160
9396	821.183
9397	761.397
9398	787.334
9399	773.266
9400	829.976
9401	813.710
9402	815.908
9403	826.459
9404	815.908
9405	852.396
9406	811.952
9407	857.231
9408	833.053
9409	819.425
9410	798.324
9411	759.639
9412	806.677
9413	808.435
9414	857.231
9415	801.401
9416	808.875
9417	806.237
9418	787.773
9419	808.435
9420	759.199
9421	817.227
9422	801.401
9423	819.425
9424	794.368
9425	808.875
9426	822.502
9427	785.575
9428	829.976
9429	818.985
9430	783.817
9431	830.855
9432	821.623
9433	791.290
9434	815.469
9435	778.542
9436	825.580
9437	812.391
9438	787.773
9439	815.469
9440	765.354
9441	829.536
9442	790.851
9443	830.415
9444	808.435
9445	801.841
9446	812.391
9447	782.938
9448	829.536
9449	787.334
9450	829.976
9451	815.469
9452	801.841
9453	811.073
9454	781.619
9455	826.019
9456	787.334
9457	822.942
9458	815.029
9459	805.358
9460	824.261
9461	787.334
9462	832.613
9463	801.401
9464	844.043
9465	841.405
9466	808.875
9467	820.744
9468	775.025
9469	826.459
9470	794.368
9471	796.566
9472	808.875
9473	787.773
9474	813.710
9475	745.132
9476	815.908
9477	822.502
9478	819.425
9479	814.150
9480	787.773
9481	828.657
9482	801.401
9483	848.879
9484	811.952
9485	822.942
9486	815.469
9487	790.851
9488	813.710
9489	768.870
9490	815.029
9491	797.884
9492	815.908
9493	823.381
9494	815.908
9495	846.241
9496	815.908
9497	841.845
9498	811.952
9499	844.043
9500	831.294
9501	808.875
9502	826.019
9503	782.059
9504	829.976
9505	787.334
9506	817.667
9507	813.710
9508	801.841
9509	821.623
9510	787.773
9511	829.976
9512	794.368
9513	815.908
9514	806.677
9515	787.773
9516	810.193
9517	748.649
9518	809.314
9519	811.952
9520	828.217
9521	843.603
9522	824.700
9523	844.043
9524	784.257
9525	822.063
9526	794.368
9527	801.841
9528	801.841
9529	770.189
9530	815.469
9531	793.488
9532	834.372
9533	806.677
9534	815.908
9535	808.875
9536	771.508
9537	818.985
9538	783.817
9539	828.217
9540	808.435
9541	822.942
9542	815.469
9543	815.908
9544	829.976
9545	810.633
9546	851.077
9547	806.677
9548	845.362
9549	815.469
9550	798.324
9551	808.875
9552	808.875
9553	836.570
9554	778.542
9555	804.918
9556	780.300
9557	801.841
9558	804.478
9559	787.773
9560	812.391
9561	788.213
9562	843.603
9563	815.469
9564	829.976
9565	824.700
9566	803.599
9567	829.536
9568	781.179
9569	819.865
9570	786.894
9571	791.290
9572	787.773
9573	773.706
9574	796.126
9575	760.958
9576	826.459
9577	827.778
9578	844.043
9579	855.912
9580	822.942
9581	850.637
9582	801.401
9583	837.009
9584	822.502
9585	808.875
9586	818.985
9587	782.059
9588	829.536
9589	790.851
9590	829.976
9591	822.502
9592	815.908
9593	827.338
9594	787.773
9595	822.502
9596	780.300
9597	819.425
9598	808.435
9599	798.324
9600	808.435
9601	774.585
9602	822.502
9603	794.368
9604	829.976
9605	815.469
9606	808.875
9607	811.073
9608	777.223
9609	826.019
9610	787.334
9611	833.492
9612	817.667
9613	811.952
9614	811.952
9615	777.223
9616	827.778
9617	810.193
9618	860.748
9619	826.019
9620	794.807
9621	801.841
9622	777.223
9623	820.744
9624	776.783
9625	817.667
9626	815.469
9627	815.908
9628	829.976
9629	793.928
9630	841.845
9631	797.884
9632	820.304
9633	801.401
9634	801.841
9635	816.348
9636	787.773
9637	834.811
9638	787.334
9639	822.942
9640	827.778
9641	819.425
9642	822.502
9643	780.740
9644	826.019
9645	767.112
9646	833.053
9647	797.884
9648	826.459
9649	811.512
9650	801.841
9651	815.908
9652	780.740
9653	826.019
9654	797.005
9655	837.009
9656	818.985
9657	815.908
9658	814.589
9659	776.344
9660	815.469
9661	780.300
9662	822.502
9663	818.985
9664	801.841
9665	818.985
9666	798.764
9667	850.637
9668	808.435
9669	819.425
9670	794.807
9671	801.841
9672	819.865
9673	787.773
9674	829.536
9675	783.817
9676	821.183
9677	808.435
9678	814.150
9679	813.710
9680	782.498
9681	822.502
9682	786.015
9683	829.976
9684	815.469
9685	815.908
9686	816.348
9687	782.498
9688	826.019
9689	783.817
9690	826.459
9691	801.401
9692	801.841
9693	815.469
9694	788.653
9695	832.174
9696	801.401
9697	837.009
9698	813.710
9699	815.908
9700	835.251
9701	801.841
9702	850.637
9703	801.401
9704	829.976
9705	814.589
9706	803.599
9707	809.314
9708	778.981
9709	815.469
9710	785.575
9711	822.942
9712	810.193
9713	794.807
9714	812.831
9715	778.102
9716	815.469
9717	787.334
9718	829.976
9719	815.469
9720	801.841
9721	811.952
9722	778.542
9723	826.019
9724	787.334
9725	819.425
9726	815.029
9727	798.324
9728	822.502
9729	788.213
9730	843.603
9731	808.435
9732	829.976
9733	822.502
9734	801.841
9735	825.140
9736	786.894
9737	834.372
9738	801.401
9739	822.942
9740	816.787
9741	794.807
9742	822.502
9743	789.092
9744	840.966
9745	811.952
9746	829.536
9747	815.469
9748	815.908
9749	815.908
9750	787.773
9751	811.952
9752	773.706
9753	829.536
9754	802.280
9755	815.029
9756	813.271
9757	787.773
9758	815.469
9759	776.783
9760	823.381
9761	806.677
9762	815.908
9763	815.469
9764	787.773
9765	829.536
9766	790.851
9767	811.952
9768	797.884
9769	817.667
9770	833.492
9771	815.908
9772	843.603
9773	794.368
9774	830.855
9775	820.744
9776	815.908
9777	818.985
9778	787.773
9779	838.328
9780	794.368
9781	826.459
9782	822.502
9783	815.908
9784	830.855
9785	787.773
9786	819.425
9787	773.266
9788	815.908
9789	822.502
9790	815.908
9791	829.536
9792	783.817
9793	822.502
9794	786.894
9795	807.116
9796	787.334
9797	787.773
9798	808.435
9799	779.421
9800	834.811
9801	801.401
9802	829.976
9803	818.985
9804	801.841
9805	815.469
9806	777.662
9807	817.227
9808	787.334
9809	829.976
9810	826.459
9811	794.807
9812	829.976
9813	792.609
9814	834.372
9815	815.469
9816	815.908
9817	815.908
9818	780.740
9819	822.502
9820	794.368
9821	831.734
9822	810.193
9823	801.841
9824	804.478
9825	787.773
9826	824.700
9827	776.783
9828	833.053
9829	832.613
9830	829.976
9831	840.966
9832	799.203
9833	838.328
9834	797.884
9835	815.908
9836	799.643
9837	787.773
9838	804.918
9839	771.068
9840	818.985
9841	787.334
9842	837.009
9843	841.845
9844	815.908
9845	829.976
9846	794.807
9847	831.294
9848	801.401
9849	829.976
9850	801.401
9851	837.009
9852	836.130
9853	801.841
9854	822.502
9855	776.344
9856	829.976
9857	801.401
9858	808.875
9859	802.720
9860	773.706
9861	804.918
9862	766.233
9863	822.942
9864	804.918
9865	808.875
9866	815.908
9867	789.532
9868	834.811
9869	794.368
9870	829.976
9871	815.469
9872	815.908
9873	818.985
9874	788.653
9875	840.087
9876	771.948
9877	843.603
9878	797.884
9879	848.439
9880	782.059
9881	840.526
9882	811.952
9883	837.009
9884	816.787
9885	773.706
9886	794.368
9887	756.122
9888	793.488
9889	778.102
9890	789.532
9891	799.643
9892	777.223
9893	833.053
9894	811.952
9895	844.043
9896	836.570
9897	815.908
9898	836.570
9899	791.730
9900	842.285
9901	815.469
9902	815.908
9903	817.227
9904	787.773
9905	818.985
9906	785.575
9907	826.459
9908	808.435
9909	808.875
9910	822.502
9911	794.368
9912	843.164
9913	813.710
9914	844.043
9915	827.778
9916	808.875
9917	820.744
9918	761.837
9919	812.391
9920	800.082
9921	797.445
9922	826.019
9923	808.875
9924	848.879
9925	811.952
9926	844.043
9927	815.469
9928	808.435
9929	798.764
9930	767.112
9931	815.469
9932	787.334
9933	829.976
9934	813.710
9935	791.290
9936	803.599
9937	766.672
9938	815.469
9939	787.334
9940	822.942
9941	807.995
9942	791.290
9943	837.449
9944	806.677
9945	844.043
9946	804.918
9947	815.908
9948	809.314
9949	787.773
9950	815.469
9951	760.958
9952	807.995
9953	779.421
9954	844.043
9955	831.294
9956	844.043
9957	831.734
9958	801.841
9959	836.570
9960	789.971
9961	829.536
9962	811.952
9963	805.358
9964	800.522
9965	766.672
9966	815.469
9967	794.368
9968	829.976
9969	833.053
9970	818.985
9971	843.603
9972	813.271
9973	855.912
9974	813.710
9975	821.183
9976	809.754
9977	787.773
9978	815.469
9979	785.575
9980	822.942
9981	801.401
9982	808.875
9983	811.073
9984	778.981
9985	829.536
9986	800.522
9987	824.700
9988	806.677
9989	791.290
9990	822.063
9991	785.575
9992	834.811
9993	808.435
9994	829.976
9995	824.261
9996	794.807
9997	811.952
9998	771.508
9999	824.700
10000	811.952
10001	815.908
10002	809.754
10003	778.981
10004	815.469
10005	782.938
10006	829.976
10007	818.985
10008	817.667
10009	815.908
10010	787.773
10011	836.130
10012	799.643
10013	827.338
10014	808.435
10015	815.908
10016	838.328
10017	808.875
10018	843.603
10019	808.435
10020	823.381
10021	808.435
10022	787.773
10023	790.851
10024	742.934
10025	817.227
10026	797.884
10027	822.942
10028	815.908
10029	787.773
10030	819.425
10031	787.334
10032	829.096
10033	804.918
10034	808.875
10035	819.865
10036	796.566
10037	843.603
10038	812.391
10039	847.560
10040	826.019
10041	815.908
10042	824.261
10043	797.005
10044	842.724
10045	815.029
10046	822.942
10047	806.237
10048	787.773
10049	818.985
10050	790.411
10051	826.459
10052	787.334
10053	801.401
10054	801.401
10055	798.324
10056	813.271
10057	787.773
10058	826.019
10059	797.884
10060	841.405
10061	811.952
10062	801.841
10063	822.502
10064	806.237
10065	850.637
10066	810.193
10067	844.043
10068	825.580
10069	798.324
10070	818.985
10071	787.773
10072	817.227
10073	787.334
10074	801.841
10075	816.787
10076	787.773
10077	815.469
10078	759.199
10079	798.324
10080	787.334
10081	791.290
10082	812.391
10083	787.773
10084	831.294
10085	808.435
10086	844.043
10087	837.449
10088	829.976
10089	843.603
10090	797.445
10091	831.294
10092	787.334
10093	794.807
10094	783.377
10095	763.156
10096	801.401
10097	776.783
10098	829.976
10099	825.580
10100	829.976
10101	847.120
10102	802.280
10103	833.053
10104	789.092
10105	805.358
10106	801.401
10107	801.841
10108	817.227
10109	791.730
10110	849.318
10111	822.502
10112	829.976
10113	829.976
10114	805.358
10115	828.657
10116	778.542
10117	822.063
10118	794.368
10119	798.324
10120	809.314
10121	780.740
10122	808.435
10123	783.817
10124	833.492
10125	840.087
10126	837.009
10127	850.637
10128	822.502
10129	857.671
10130	808.435
10131	815.908
10132	791.730
10133	752.605
10134	780.300
10135	757.441
10136	807.995
10137	801.401
10138	808.875
10139	803.599
10140	766.672
10141	811.952
10142	791.730
10143	840.526
10144	843.603
10145	837.009
10146	844.043
10147	794.807
10148	829.536
10149	787.334
10150	794.807
10151	790.411
10152	787.773
10153	771.508
10154	742.054
10155	845.362
10156	843.603
10157	868.661
10158	815.469
10159	829.976
10160	819.425
10161	798.324
10162	822.502
10163	801.401
10164	850.637
10165	829.536
10166	822.942
10167	773.706
10168	801.841
10169	877.893
10170	836.570
10171	851.077
10172	818.985
10173	808.875
10174	818.985
10175	775.904
10176	809.314
10177	776.783
10178	800.962
10179	789.092
10180	773.706
10181	787.334
10182	755.682
10183	820.304
10184	766.233
10185	787.773
10186	826.459
10187	814.150
10188	842.724
10189	797.884
10190	865.144
10191	843.603
10192	837.009
10193	867.342
10194	821.183
10195	840.087
10196	773.266
10197	773.706
10198	812.391
10199	815.908
10200	833.053
10201	766.233
10202	800.962
10203	783.817
10204	794.807
10205	794.368
10206	759.639
10207	843.603
10208	792.609
10209	859.869
10210	868.221
10211	844.043
10212	831.294
10213	780.300
10214	808.435
10215	776.783
10216	787.773
10217	787.773
10218	777.223
10219	806.677
10220	762.716
10221	808.435
10222	797.884
10223	787.773
10224	793.928
10225	753.045
10226	744.252
10227	794.368
10228	872.178
10229	875.695
10230	858.110
10231	889.322
10232	833.053
10233	875.255
10234	857.671
10235	872.178
10236	833.053
10237	833.053
10238	868.221
10239	806.677
10240	814.150
10241	745.132
10242	759.639
10243	774.146
10244	768.870
10245	804.918
10246	776.783
10247	803.599
10248	787.334
10249	766.672
10250	781.179
10251	745.571
10252	813.710
10253	829.536
10254	878.332
10255	841.845
10256	794.807
10257	808.435
10258	770.629
10259	822.502
10260	760.958
10261	775.464
10262	710.842
10263	833.492
10264	902.510
10265	861.627
10266	850.637
10267	793.488
10268	829.976
10269	744.252
10270	775.464
10271	826.459
10272	850.637
10273	822.942
10274	850.637
10275	899.873
10276	889.762
10277	813.710
10278	822.502
10279	773.266
10280	821.183
10281	797.884
10282	805.358
10283	780.740
10284	773.706
10285	815.469
10286	776.783
10287	822.942
10288	787.334
10289	821.183
10290	824.261
10291	808.875
10292	884.047
10293	843.603
10294	841.405
10295	801.401
10296	777.223
10297	748.649
10298	731.504
10299	797.005
10300	766.233
10301	798.324
10302	780.300
10303	778.981
10304	810.193
10305	826.459
10306	875.255
10307	826.019
10308	717.437
10309	707.765
10310	900.312
10311	949.109
10312	847.120
10313	845.362
10314	787.334
10315	745.571
10316	837.009
10317	851.077
10318	864.704
10319	783.817
10320	798.324
10321	783.817
10322	787.773
10323	787.773
10324	761.397
10325	824.261
10326	808.435
10327	822.942
10328	822.502
10329	808.875
10330	843.603
10331	833.053
10332	903.829
10333	757.441
10334	815.908
10335	886.245
10336	799.643
10337	727.547
10338	748.649
10339	880.970
10340	881.409
10341	837.009
10342	841.845
10343	782.059
10344	822.502
10345	787.334
10346	801.841
10347	743.813
10348	797.005
10349	820.744
10350	808.875
10351	720.514
10352	754.363
10353	857.671
10354	834.372
10355	804.918
10356	815.469
10357	843.603
10358	872.178
10359	855.912
10360	871.738
10361	843.164
10362	855.473
10363	801.841
10364	776.783
10365	753.924
10366	780.740
10367	759.199
10368	786.015
10369	776.783
10370	773.266
10371	798.764
10372	829.976
10373	776.344
10374	815.029
10375	839.207
10376	819.425
10377	743.373
10378	838.328
10379	879.211
10380	822.942
10381	835.690
10382	919.216
10383	865.144
10384	804.918
10385	810.193
10386	768.431
10387	815.469
10388	768.431
10389	801.401
10390	833.053
10391	808.875
10392	757.441
10393	768.870
10394	686.224
10395	796.566
10396	882.289
10397	877.453
10398	847.560
10399	780.300
10400	807.995
10401	759.639
10402	787.334
10403	759.199
10404	801.401
10405	829.976
10406	798.324
10407	826.459
10408	892.839
10409	889.762
10410	857.671
10411	844.043
10412	823.381
10413	838.328
10414	801.841
10415	815.469
10416	801.841
10417	751.726
10418	797.445
10419	844.043
10420	800.082
10421	800.082
10422	796.566
10423	801.401
10424	875.255
10425	960.099
10426	878.772
10427	814.150
10428	764.035
10429	717.437
10430	727.547
10431	759.639
10432	787.334
10433	717.437
10434	762.716
10435	813.710
10436	826.459
10437	759.639
10438	771.508
10439	797.884
10440	819.425
10441	797.884
10442	824.261
10443	830.855
10444	794.368
10445	921.414
10446	868.221
10447	805.358
10448	787.773
10449	889.322
10450	889.322
10451	815.908
10452	787.334
10453	829.536
10454	857.671
10455	924.930
10456	913.940
10457	790.411
10458	720.953
10459	752.605
10460	745.132
10461	731.064
10462	766.672
10463	773.266
10464	818.985
10465	773.706
10466	850.637
10467	857.671
10468	844.043
10469	829.536
10470	875.695
10471	862.946
10472	787.773
10473	752.165
10474	690.181
10475	757.001
10476	800.082
10477	936.800
10478	843.603
10479	850.637
10480	798.324
10481	801.401
10482	844.043
10483	812.391
10484	759.639
10485	759.199
10486	741.615
10487	692.819
10488	906.907
10489	1005.818
10490	869.100
10491	775.464
10492	759.199
10493	752.165
10494	738.538
10495	702.490
10496	731.064
10497	759.639
10498	766.233
10499	823.381
10500	872.178
10501	874.815
10502	886.245
10503	963.176
10504	942.515
10505	844.043
10506	818.985
10507	797.884
10508	821.183
10509	749.528
10510	766.233
10511	773.266
10512	775.025
10513	790.851
10514	829.976
10515	815.469
10516	780.740
10517	752.165
10518	843.164
10519	872.178
10520	843.603
10521	815.469
10522	821.183
10523	733.262
10524	822.502
10525	864.704
10526	852.835
10527	798.324
10528	885.806
10529	896.796
10530	746.011
10531	738.538
10532	829.536
10533	847.120
10534	803.599
10535	735.460
10536	843.603
10537	900.312
10538	833.932
10539	710.403
10540	744.252
10541	766.233
10542	759.639
10543	787.334
10544	829.976
10545	842.724
10546	815.908
10547	833.053
10548	801.841
10549	780.300
10550	797.884
10551	778.102
10552	724.031
10553	810.633
10554	826.019
10555	759.639
10556	821.183
10557	962.297
10558	871.738
10559	787.773
10560	838.328
10561	843.603
10562	801.401
10563	829.976
10564	871.738
10565	854.154
10566	794.807
10567	752.165
10568	779.421
10569	837.009
10570	815.469
10571	815.908
10572	817.667
10573	850.197
10574	801.841
10575	800.082
10576	815.908
10577	764.914
10578	822.063
10579	826.019
10580	837.009
10581	805.358
10582	719.635
10583	677.432
10584	837.009
10585	861.188
10586	768.431
10587	752.165
10588	802.720
10589	822.502
10590	837.009
10591	868.221
10592	899.873
10593	903.829
10594	984.277
10595	984.717
10596	821.183
10597	688.862
10598	675.234
10599	695.017
10600	724.470
10601	752.605
10602	731.504
10603	773.266
10604	780.740
10605	782.498
10606	829.976
10607	899.873
10608	875.695
10609	877.013
10610	837.009
10611	817.227
10612	837.009
10613	856.792
10614	825.580
10615	931.525
10616	850.637
10617	794.368
10618	716.997
10619	763.156
10620	750.407
10621	752.165
10622	780.300
10623	815.908
10624	844.043
10625	889.762
10626	900.312
10627	843.603
10628	815.469
10629	787.773
10630	716.997
10631	854.594
10632	794.807
10633	759.199
10634	752.165
10635	752.605
10636	817.227
10637	815.908
10638	833.492
10639	882.289
10640	866.902
10641	836.570
10642	759.639
10643	822.063
10644	856.352
10645	787.773
10646	773.266
10647	764.474
10648	808.875
10649	776.783
10650	808.875
10651	815.908
10652	833.053
10653	829.536
10654	885.806
10655	900.312
10656	885.806
10657	906.907
10658	766.233
10659	773.706
10660	692.819
10661	725.789
10662	662.925
10663	709.963
10664	710.403
10665	794.368
10666	766.672
10667	817.227
10668	902.071
10669	892.839
10670	946.031
10671	854.594
10672	839.207
10673	759.639
10674	920.095
10675	905.588
10676	863.386
10677	813.710
10678	801.841
10679	769.750
10680	780.300
10681	690.181
10682	731.064
10683	709.963
10684	873.497
10685	829.976
10686	808.875
10687	863.386
10688	856.792
10689	794.368
10690	805.358
10691	778.542
10692	787.334
10693	787.773
10694	836.570
10695	840.087
10696	821.183
10697	833.053
10698	787.773
10699	850.637
10700	854.594
10701	800.962
10702	820.304
10703	762.716
10704	748.649
10705	794.368
10706	894.158
10707	780.300
10708	769.750
10709	749.088
10710	759.199
10711	808.875
10712	840.087
10713	791.730
10714	810.193
10715	801.401
10716	753.045
10717	847.120
10718	829.536
10719	821.183
10720	800.962
10721	920.974
10722	960.978
10723	847.560
10724	877.013
10725	802.720
10726	829.536
10727	843.603
10728	804.918
10729	701.171
10730	709.963
10731	759.199
10732	745.132
10733	713.920
10734	759.639
10735	892.839
10736	917.457
10737	942.515
10738	902.510
10739	861.188
10740	815.469
10741	817.667
10742	804.918
10743	810.633
10744	763.156
10745	699.852
10746	791.730
10747	769.310
10748	759.639
10749	724.470
10750	783.817
10751	797.884
10752	748.209
10753	808.435
10754	834.372
10755	909.544
10756	822.942
10757	713.480
10758	831.294
10759	889.762
10760	829.536
10761	935.481
10762	935.041
10763	928.447
10764	829.536
10765	760.958
10766	742.054
10767	736.779
10768	815.029
10769	801.841
10770	798.324
10771	794.807
10772	963.176
10773	998.784
10774	773.266
10775	725.789
10776	697.654
10777	682.268
10778	668.640
10779	689.302
10780	766.233
10781	806.677
10782	787.773
10783	862.946
10784	926.689
10785	878.772
10786	886.245
10787	831.734
10788	762.716
10789	786.894
10790	831.294
10791	815.469
10792	756.122
10793	843.603
10794	731.064
10795	888.883
10796	947.790
10797	913.940
10798	854.594
10799	815.908
10800	825.580
10801	822.063
10802	759.639
10803	804.918
10804	759.639
10805	760.958
10806	713.480
10807	793.928
10808	773.706
10809	794.368
10810	794.368
10811	812.391
10812	815.469
10813	840.526
10814	836.130
10815	831.734
10816	970.210
10817	848.879
10818	791.290
10819	889.322
10820	962.297
10821	688.862
10822	757.880
10823	731.064
10824	680.070
10825	703.369
10826	714.359
10827	761.397
10828	835.251
10829	906.907
10830	902.071
10831	903.829
10832	931.085
10833	886.245
10834	836.130
10835	762.716
10836	724.470
10837	729.745
10838	696.335
10839	750.407
10840	706.886
10841	706.446
10842	747.769
10843	865.144
10844	878.772
10845	886.245
10846	815.469
10847	903.829
10848	920.974
10849	882.728
10850	820.744
10851	787.773
10852	699.413
10853	759.639
10854	848.879
10855	865.144
10856	892.839
10857	896.356
10858	854.154
10859	819.425
10860	770.189
10861	786.455
10862	830.415
10863	815.469
10864	814.589
10865	787.334
10866	801.841
10867	837.009
10868	841.405
10869	731.504
10870	653.694
10871	800.962
10872	765.354
10873	742.934
10874	858.110
10875	913.940
10876	899.873
10877	896.356
10878	929.766
10879	949.548
10880	954.384
10881	731.504
10882	695.896
10883	734.581
10884	682.268
10885	697.654
10886	679.630
10887	762.716
10888	812.391
10889	808.435
10890	824.261
10891	844.043
10892	857.671
10893	896.796
10894	787.334
10895	675.234
10896	787.334
10897	925.370
10898	910.863
10899	818.546
10900	862.506
10901	837.009
10902	847.120
10903	811.073
10904	828.657
10905	801.401
10906	787.773
10907	782.059
10908	826.019
10909	776.344
10910	809.314
10911	731.064
10912	837.009
10913	850.637
10914	829.976
10915	815.469
10916	916.578
10917	915.699
10918	817.667
10919	759.639
10920	688.862
10921	759.199
10922	780.740
10923	833.053
10924	857.671
10925	699.413
10926	856.352
10927	759.199
10928	808.435
10929	857.671
10930	826.459
10931	791.290
10932	798.324
10933	787.334
10934	849.758
10935	829.976
10936	801.401
10937	858.110
10938	794.368
10939	736.779
10940	745.132
10941	772.387
10942	801.841
10943	811.073
10944	891.960
10945	858.110
10946	745.132
10947	811.952
10948	875.255
10949	888.883
10950	815.908
10951	841.845
10952	905.588
10953	864.704
10954	847.120
10955	818.985
10956	783.817
10957	826.459
10958	794.368
10959	787.773
10960	759.199
10961	800.522
10962	801.841
10963	731.064
10964	930.206
10965	886.245
10966	938.558
10967	919.655
10968	780.740
10969	636.109
10970	594.347
10971	560.937
10972	614.569
10973	762.716
10974	858.110
10975	895.477
10976	831.734
10977	766.672
10978	858.110
10979	928.447
10980	899.873
10981	877.453
10982	866.902
10983	815.469
10984	872.178
10985	745.132
10986	907.346
10987	935.041
10988	783.817
10989	654.133
10990	706.446
10991	904.709
10992	863.386
10993	773.266
10994	797.884
10995	855.912
10996	872.178
10997	829.976
10998	857.671
10999	875.695
11000	801.401
11001	821.183
11002	773.266
11003	791.290
11004	801.401
11005	810.193
11006	804.478
11007	822.942
11008	787.334
11009	787.773
11010	814.150
11011	787.773
11012	868.661
11013	886.245
11014	766.672
11015	655.892
11016	699.413
11017	764.474
11018	794.368
11019	733.262
11020	731.064
11021	822.942
11022	849.318
11023	902.071
11024	970.210
11025	975.485
11026	873.936
11027	692.819
11028	726.229
11029	745.132
11030	756.122
11031	710.403
11032	766.233
11033	896.356
11034	912.621
11035	882.728
11036	887.564
11037	866.463
11038	808.435
11039	851.516
11040	773.706
11041	787.334
11042	806.677
11043	766.672
11044	742.494
11045	811.952
11046	801.401
11047	900.312
11048	920.974
11049	981.200
11050	934.602
11051	735.021
11052	773.266
11053	787.773
11054	787.334
11055	710.403
11056	745.132
11057	804.478
11058	741.615
11059	696.335
11060	750.847
11061	763.156
11062	786.015
11063	720.953
11064	766.233
11065	847.120
11066	752.165
11067	770.189
11068	826.019
11069	910.863
11070	920.974
11071	942.515
11072	961.418
11073	886.245
11074	790.851
11075	773.706
11076	799.643
11077	737.658
11078	787.334
11079	731.064
11080	810.193
11081	826.019
11082	903.829
11083	850.637
11084	851.077
11085	843.603
11086	829.976
11087	773.706
11088	773.706
11089	975.485
11090	945.592
11091	799.643
11092	671.278
11093	753.484
11094	692.379
11095	829.976
11096	866.902
11097	815.908
11098	801.401
11099	743.373
11100	773.706
11101	722.272
11102	787.773
11103	833.492
11104	872.178
11105	938.998
11106	829.976
11107	755.682
11108	709.963
11109	766.233
11110	741.615
11111	761.397
11112	759.199
11113	759.639
11114	783.817
11115	752.605
11116	857.671
11117	857.671
11118	891.520
11119	885.806
11120	914.380
11121	901.631
11122	931.964
11123	938.558
11124	809.314
11125	785.575
11126	688.862
11127	710.403
11128	702.930
11129	738.538
11130	865.584
11131	844.043
11132	878.772
11133	826.019
11134	840.526
11135	811.952
11136	727.108
11137	844.043
11138	900.312
11139	861.188
11140	929.766
11141	991.311
11142	752.165
11143	640.066
11144	671.278
11145	701.611
11146	738.098
11147	726.229
11148	829.536
11149	811.952
11150	787.773
11151	716.997
11152	787.773
11153	812.391
11154	776.783
11155	824.261
11156	787.773
11157	843.603
11158	822.502
11159	859.869
11160	864.704
11161	822.942
11162	789.092
11163	810.633
11164	862.946
11165	699.413
11166	906.467
11167	928.008
11168	956.582
11169	892.839
11170	808.875
11171	815.908
11172	808.435
11173	848.439
11174	745.132
11175	773.706
11176	808.875
11177	822.942
11178	810.193
11179	736.779
11180	762.716
11181	695.896
11182	780.300
11183	743.373
11184	761.397
11185	808.435
11186	872.178
11187	858.990
11188	743.373
11189	769.310
11190	840.087
11191	859.869
11192	780.300
11193	801.841
11194	844.043
11195	801.841
11196	794.368
11197	775.025
11198	841.845
11199	840.087
11200	928.447
11201	840.526
11202	768.431
11203	848.879
11204	757.880
11205	788.213
11206	815.469
11207	808.875
11208	793.928
11209	851.956
11210	871.738
11211	762.716
11212	815.469
11213	815.908
11214	824.700
11215	725.789
11216	752.605
11217	804.918
11218	792.169
11219	913.940
11220	899.873
11221	844.043
11222	752.165
11223	724.470
11224	750.407
11225	773.706
11226	829.536
11227	773.266
11228	858.110
11229	855.912
11230	844.043
11231	799.203
11232	777.223
11233	906.907
11234	818.106
11235	759.639
11236	864.704
11237	910.863
11238	745.132
11239	787.773
11240	836.570
11241	702.930
11242	720.514
11243	808.435
11244	815.908
11245	815.469
11246	798.324
11247	812.831
11248	777.662
11249	861.188
11250	843.603
11251	900.312
11252	814.150
11253	857.671
11254	887.124
11255	869.980
11256	877.893
11257	801.401
11258	747.330
11259	687.983
11260	703.369
11261	752.165
11262	734.581
11263	790.851
11264	773.266
11265	805.358
11266	801.401
11267	822.942
11268	848.879
11269	824.700
11270	886.245
11271	847.120
11272	865.144
11273	864.704
11274	872.178
11275	826.019
11276	872.178
11277	836.570
11278	727.547
11279	773.706
11280	811.952
11281	826.459
11282	794.807
11283	752.605
11284	795.247
11285	787.773
11286	804.918
11287	798.324
11288	818.985
11289	618.525
11290	724.470
11291	833.492
11292	780.740
11293	836.570
11294	889.322
11295	906.907
11296	829.536
11297	829.976
11298	863.825
11299	808.875
11300	801.401
11301	778.542
11302	833.492
11303	823.381
11304	787.773
11305	781.179
11306	742.494
11307	829.536
11308	731.064
11309	766.672
11310	892.839
11311	844.043
11312	805.358
11313	766.233
11314	848.879
11315	804.918
11316	837.009
11317	834.372
11318	808.875
11319	822.502
11320	775.025
11321	833.492
11322	815.469
11323	872.178
11324	917.457
11325	854.594
11326	752.165
11327	759.639
11328	801.401
11329	787.773
11330	815.029
11331	777.223
11332	815.469
11333	794.368
11334	928.447
11335	861.188
11336	921.414
11337	727.547
11338	661.167
11339	822.502
11340	787.334
11341	724.470
11342	692.379
11343	717.437
11344	680.949
11345	660.288
11346	810.633
11347	843.603
11348	903.829
11349	874.815
11350	872.178
11351	873.497
11352	815.029
11353	927.128
11354	833.053
11355	815.908
11356	832.174
11357	872.178
11358	899.873
11359	836.570
11360	862.506
11361	804.918
11362	809.314
11363	811.512
11364	787.773
11365	801.401
11366	773.266
11367	817.667
11368	794.368
11369	787.773
11370	759.639
11371	678.751
11372	857.671
11373	822.063
11374	850.637
11375	762.276
11376	829.536
11377	794.368
11378	924.491
11379	884.926
11380	815.908
11381	771.508
11382	742.054
11383	791.290
11384	780.300
11385	829.976
11386	755.243
11387	851.077
11388	850.637
11389	699.852
11390	767.991
11391	805.358
11392	841.845
11393	803.160
11394	815.908
11395	808.875
11396	724.470
11397	752.165
11398	809.314
11399	844.043
11400	783.817
11401	794.807
11402	827.778
11403	797.884
11404	865.144
11405	836.570
11406	844.043
11407	802.280
11408	780.740
11409	919.216
11410	843.603
11411	893.279
11412	900.752
11413	872.178
11414	762.716
11415	688.862
11416	842.724
11417	759.199
11418	682.268
11419	728.866
11420	719.195
11421	793.049
11422	783.817
11423	844.043
11424	850.637
11425	845.801
11426	801.401
11427	797.884
11428	847.120
11429	806.677
11430	861.627
11431	877.893
11432	815.908
11433	826.019
11434	815.469
11435	879.211
11436	787.334
11437	731.504
11438	909.105
11439	834.811
11440	842.285
11441	801.401
11442	798.324
11443	775.464
11444	749.088
11445	814.150
11446	780.300
11447	712.161
11448	745.132
11449	819.425
11450	822.502
11451	771.508
11452	787.334
11453	731.064
11454	787.773
11455	766.233
11456	858.110
11457	929.766
11458	800.082
11459	879.211
11460	1012.412
11461	928.447
11462	867.342
11463	851.077
11464	856.352
11465	760.518
11466	812.391
11467	773.266
11468	731.504
11469	757.441
11470	780.300
11471	891.081
11472	811.952
11473	745.571
11474	703.369
11475	675.234
11476	729.306
11477	722.712
11478	780.740
11479	727.547
11480	773.706
11481	913.940
11482	832.613
11483	878.772
11484	870.859
11485	928.447
11486	914.380
11487	858.110
11488	767.991
11489	724.470
11490	745.132
11491	734.581
11492	843.603
11493	833.053
11494	851.077
11495	859.429
11496	844.043
11497	847.120
11498	729.306
11499	856.352
11500	866.463
11501	833.492
11502	820.744
11503	780.740
11504	843.603
11505	818.985
11506	847.560
11507	845.362
11508	675.234
11509	871.738
11510	919.216
11511	844.043
11512	759.199
11513	737.658
11514	752.165
11515	773.706
11516	801.401
11517	780.300
11518	813.271
11519	803.599
11520	773.706
11521	816.348
11522	804.918
11523	886.245
11524	815.469
11525	710.403
11526	830.855
11527	812.391
11528	731.064
11529	709.963
11530	840.526
11531	872.617
11532	837.009
11533	925.370
11534	852.396
11535	806.237
11536	745.132
11537	733.262
11538	751.726
11539	770.189
11540	843.603
11541	801.401
11542	835.251
11543	762.716
11544	794.807
11545	930.206
11546	808.875
11547	926.689
11548	864.704
11549	938.998
11550	989.113
11551	879.211
11552	715.239
11553	551.705
11554	675.234
11555	787.334
11556	794.807
11557	796.126
11558	790.851
11559	878.772
11560	808.435
11561	770.189
11562	787.773
11563	805.358
11564	843.603
11565	800.522
11566	935.481
11567	857.671
11568	815.908
11569	846.241
11570	761.837
11571	759.639
11572	706.446
11573	749.088
11574	773.266
11575	791.290
11576	877.013
11577	822.502
11578	847.560
11579	883.607
11580	879.211
11581	791.290
11582	822.942
11583	871.738
11584	702.930
11585	780.740
11586	928.008
11587	849.318
11588	787.773
11589	733.262
11590	766.233
11591	721.393
11592	808.435
11593	752.165
11594	773.706
11595	749.088
11596	752.605
11597	829.536
11598	835.690
11599	915.699
11600	899.873
11601	900.312
11602	876.134
11603	836.570
11604	864.704
11605	776.344
11606	859.869
11607	827.778
11608	773.706
11609	791.730
11610	917.457
11611	921.414
11612	720.514
11613	731.504
11614	735.460
11615	675.234
11616	716.997
11617	720.514
11618	773.706
11619	766.233
11620	773.706
11621	843.603
11622	785.575
11623	845.362
11624	836.570
11625	847.560
11626	842.285
11627	732.383
11628	878.772
11629	854.154
11630	872.178
11631	859.869
11632	819.425
11633	864.704
11634	878.772
11635	872.178
11636	813.710
11637	752.605
11638	717.876
11639	710.842
11640	724.031
11641	716.997
11642	805.358
11643	854.594
11644	844.043
11645	868.221
11646	851.077
11647	903.390
11648	801.401
11649	854.594
11650	770.629
11651	808.875
11652	899.873
11653	815.469
11654	794.807
11655	789.971
11656	763.156
11657	723.151
11658	780.300
11659	860.308
11660	864.704
11661	844.043
11662	808.875
11663	752.605
11664	840.087
11665	852.396
11666	844.043
11667	787.334
11668	738.538
11669	716.118
11670	653.694
11671	840.526
11672	864.704
11673	837.009
11674	822.942
11675	833.492
11676	857.671
11677	857.671
11678	1019.885
11679	924.491
11680	731.504
11681	664.244
11682	611.492
11683	653.694
11684	513.020
11685	808.875
11686	857.671
11687	787.773
11688	880.530
11689	910.423
11690	1002.301
11691	938.558
11692	914.380
11693	896.356
11694	790.411
11695	714.359
11696	910.423
11697	990.871
11698	913.940
11699	808.875
11700	750.847
11701	742.054
11702	815.469
11703	701.611
11704	719.195
11705	702.930
11706	717.437
11707	770.629
11708	773.706
11709	875.255
11710	857.671
11711	837.009
11712	893.279
11713	847.560
11714	808.435
11715	709.963
11716	726.229
11717	738.098
11718	735.021
11719	751.286
11720	724.470
11721	832.613
11722	850.637
11723	900.312
11724	889.322
11725	805.358
11726	885.806
11727	854.154
11728	719.195
11729	745.132
11730	858.110
11731	861.188
11732	797.005
11733	847.120
11734	850.637
11735	847.560
11736	838.768
11737	826.019
11738	869.540
11739	766.233
11740	821.183
11741	880.091
11742	845.801
11743	864.704
11744	772.387
11745	794.807
11746	753.924
11747	801.841
11748	869.540
11749	689.302
11750	838.328
11751	836.570
11752	794.807
11753	754.803
11754	731.504
11755	748.649
11756	718.755
11757	783.377
11758	815.469
11759	837.009
11760	852.396
11761	818.985
11762	889.322
11763	836.570
11764	847.560
11765	833.053
11766	837.009
11767	814.589
11768	709.963
11769	735.900
11770	731.064
11771	786.015
11772	818.985
11773	856.352
11774	917.457
11775	855.912
11776	831.734
11777	806.237
11778	773.706
11779	801.401
11780	759.639
11781	807.116
11782	793.488
11783	801.841
11784	801.401
11785	737.658
11786	833.492
11787	822.502
11788	822.942
11789	818.546
11790	829.976
11791	920.974
11792	870.419
11793	879.211
11794	860.308
11795	794.807
11796	801.401
11797	745.571
11798	782.059
11799	738.098
11800	788.653
11801	804.918
11802	794.807
11803	847.560
11804	821.183
11805	752.605
11806	889.322
11807	928.447
11808	841.405
11809	759.639
11810	792.609
11811	773.266
11812	790.851
11813	801.401
11814	801.841
11815	829.536
11816	786.455
11817	813.271
11818	787.334
11819	777.223
11820	787.334
11821	797.884
11822	843.603
11823	811.952
11824	824.700
11825	812.391
11826	798.324
11827	838.328
11828	801.401
11829	832.613
11830	816.348
11831	819.425
11832	818.106
11833	789.532
11834	836.570
11835	822.502
11836	885.806
11837	850.637
11838	775.904
11839	783.817
11840	738.098
11841	780.740
11842	769.310
11843	759.639
11844	775.025
11845	734.581
11846	803.599
11847	799.643
11848	822.942
11849	841.845
11850	812.391
11851	868.221
11852	836.570
11853	858.110
11854	835.251
11855	808.875
11856	821.623
11857	789.092
11858	843.603
11859	811.952
11860	829.976
11861	833.053
11862	803.599
11863	836.570
11864	794.368
11865	832.613
11866	815.469
11867	773.706
11868	786.894
11869	752.165
11870	815.908
11871	814.150
11872	829.976
11873	787.334
11874	854.594
11875	874.815
11876	780.740
11877	797.884
11878	785.575
11879	794.807
11880	780.740
11881	745.571
11882	783.817
11883	745.132
11884	815.908
11885	841.405
11886	837.009
11887	861.188
11888	818.985
11889	861.627
11890	829.536
11891	817.667
11892	836.570
11893	798.324
11894	821.623
11895	792.609
11896	843.603
11897	808.435
11898	829.976
11899	811.952
11900	815.908
11901	822.942
11902	787.773
11903	827.778
11904	795.247
11905	805.358
11906	803.160
11907	780.740
11908	822.502
11909	787.334
11910	822.942
11911	813.710
11912	797.884
11913	826.898
11914	787.334
11915	819.425
11916	794.368
11917	787.773
11918	806.677
11919	785.136
11920	836.570
11921	815.469
11922	819.425
11923	818.546
11924	788.653
11925	833.053
11926	794.368
11927	833.492
11928	822.502
11929	798.324
11930	822.502
11931	783.817
11932	828.217
11933	808.435
11934	808.875
11935	817.227
11936	779.861
11937	815.469
11938	794.368
11939	822.942
11940	819.425
11941	787.773
11942	833.053
11943	797.884
11944	828.217
11945	815.908
11946	791.290
11947	821.623
11948	792.609
11949	840.526
11950	815.469
11951	815.908
11952	815.469
11953	773.706
11954	826.019
11955	780.300
11956	803.599
11957	796.126
11958	763.156
11959	797.884
11960	787.334
11961	847.999
11962	833.932
11963	815.908
11964	850.637
11965	817.227
11966	851.956
11967	808.435
11968	825.580
11969	814.589
11970	773.706
11971	806.677
11972	769.750
11973	812.391
11974	797.884
11975	787.773
11976	797.884
11977	766.233
11978	829.976
11979	801.401
11980	815.908
11981	844.043
11982	815.908
11983	848.879
11984	815.469
11985	826.459
11986	808.875
11987	787.773
11988	811.952
11989	769.750
11990	814.150
11991	797.884
11992	808.875
11993	822.502
11994	793.049
11995	833.492
11996	801.401
11997	829.976
11998	826.459
11999	798.324
12000	843.603
12001	798.324
12002	850.637
12003	811.073
12004	837.009
12005	815.469
12006	794.807
12007	807.556
12008	775.025
12009	829.976
12010	815.469
12011	815.908
12012	819.425
12013	791.290
12014	840.087
12015	801.401
12016	824.700
12017	818.985
12018	787.773
12019	828.657
12020	794.368
12021	820.744
12022	811.073
12023	787.773
12024	806.677
12025	773.266
12026	816.787
12027	801.401
12028	800.082
12029	808.875
12030	773.706
12031	826.019
12032	801.401
12033	829.976
12034	826.898
12035	795.686
12036	842.285
12037	801.401
12038	833.492
12039	826.459
12040	801.841
12041	821.623
12042	785.575
12043	829.976
12044	820.744
12045	805.358
12046	815.469
12047	780.740
12048	827.338
12049	808.435
12050	815.908
12051	821.623
12052	777.662
12053	818.985
12054	797.005
12055	818.985
12056	817.667
12057	787.773
12058	815.469
12059	769.750
12060	822.942
12061	815.908
12062	801.401
12063	822.502
12064	790.851
12065	840.087
12066	808.435
12067	815.908
12068	803.160
12069	764.914
12070	820.744
12071	805.358
12072	844.043
12073	822.502
12074	801.841
12075	836.570
12076	801.401
12077	837.009
12078	810.193
12079	794.807
12080	804.918
12081	770.189
12082	815.469
12083	773.266
12084	798.324
12085	813.271
12086	798.324
12087	833.053
12088	801.401
12089	844.043
12090	822.502
12091	801.841
12092	822.502
12093	783.817
12094	831.294
12095	819.425
12096	808.875
12097	809.754
12098	780.740
12099	831.294
12100	801.401
12101	829.976
12102	822.942
12103	794.807
12104	819.425
12105	789.092
12106	848.879
12107	808.435
12108	822.942
12109	808.875
12110	777.223
12111	810.193
12112	780.300
12113	826.459
12114	815.469
12115	794.807
12116	822.502
12117	783.817
12118	822.942
12119	815.469
12120	794.807
12121	813.710
12122	775.025
12123	821.183
12124	801.401
12125	808.875
12126	822.502
12127	796.126
12128	851.077
12129	821.623
12130	829.976
12131	818.985
12132	780.740
12133	818.985
12134	787.334
12135	805.358
12136	807.116
12137	787.773
12138	822.502
12139	799.643
12140	845.801
12141	828.657
12142	815.908
12143	833.053
12144	793.488
12145	837.009
12146	811.952
12147	815.908
12148	812.831
12149	780.740
12150	815.469
12151	773.266
12152	801.841
12153	808.875
12154	766.672
12155	811.952
12156	801.401
12157	854.594
12158	833.053
12159	815.908
12160	818.106
12161	778.981
12162	819.425
12163	801.401
12164	819.425
12165	826.898
12166	798.324
12167	841.845
12168	808.435
12169	829.976
12170	815.469
12171	787.773
12172	822.502
12173	787.334
12174	822.942
12175	811.952
12176	794.807
12177	818.985
12178	790.851
12179	839.647
12180	815.469
12181	815.908
12182	817.227
12183	788.213
12184	839.207
12185	801.401
12186	816.348
12187	805.358
12188	773.706
12189	804.918
12190	778.542
12191	817.667
12192	814.589
12193	801.841
12194	820.744
12195	776.783
12196	827.778
12197	806.677
12198	808.875
12199	822.502
12200	791.730
12201	833.932
12202	801.401
12203	815.908
12204	808.875
12205	763.156
12206	799.643
12207	787.773
12208	839.207
12209	808.435
12210	837.009
12211	836.130
12212	792.169
12213	830.415
12214	790.851
12215	822.942
12216	811.073
12217	787.773
12218	811.952
12219	782.059
12220	831.734
12221	817.227
12222	808.875
12223	815.469
12224	779.421
12225	826.019
12226	797.884
12227	815.908
12228	816.348
12229	791.290
12230	833.053
12231	794.368
12232	822.942
12233	818.106
12234	787.773
12235	818.985
12236	780.300
12237	826.459
12238	815.469
12239	808.875
12240	822.502
12241	790.411
12242	837.449
12243	799.643
12244	805.358
12245	829.976
12246	798.324
12247	829.536
12248	787.334
12249	819.425
12250	808.435
12251	787.773
12252	818.985
12253	790.851
12254	837.009
12255	815.469
12256	819.425
12257	830.415
12258	794.368
12259	839.647
12260	808.435
12261	815.908
12262	815.469
12263	795.686
12264	834.811
12265	794.368
12266	829.976
12267	823.821
12268	796.566
12269	820.744
12270	777.223
12271	815.908
12272	804.918
12273	794.807
12274	818.985
12275	780.300
12276	826.459
12277	808.435
12278	801.841
12279	816.348
12280	789.092
12281	833.932
12282	801.401
12283	826.459
12284	819.865
12285	780.740
12286	827.778
12287	787.334
12288	801.841
12289	820.304
12290	801.841
12291	841.845
12292	801.401
12293	826.459
12294	815.469
12295	787.773
12296	827.778
12297	801.401
12298	837.009
12299	813.710
12300	794.807
12301	799.643
12302	762.716
12303	815.469
12304	787.334
12305	802.720
12306	805.358
12307	761.397
12308	810.193
12309	778.981
12310	833.053
12311	808.435
12312	819.865
12313	831.294
12314	802.720
12315	843.603
12316	811.952
12317	844.043
12318	829.976
12319	801.841
12320	826.459
12321	783.817
12322	826.459
12323	807.556
12324	794.807
12325	811.952
12326	774.146
12327	822.942
12328	808.875
12329	801.841
12330	819.425
12331	794.368
12332	848.439
12333	815.469
12334	801.841
12335	801.401
12336	752.605
12337	801.401
12338	787.334
12339	819.425
12340	827.338
12341	815.908
12342	864.704
12343	822.502
12344	851.077
12345	829.536
12346	808.875
12347	836.570
12348	797.884
12349	830.855
12350	799.643
12351	794.807
12352	817.227
12353	783.817
12354	829.536
12355	787.334
12356	798.324
12357	793.049
12358	773.706
12359	822.502
12360	794.368
12361	829.536
12362	818.985
12363	794.807
12364	822.502
12365	785.575
12366	829.976
12367	811.512
12368	801.841
12369	815.908
12370	783.817
12371	838.328
12372	820.744
12373	829.976
12374	822.502
12375	785.136
12376	829.976
12377	783.817
12378	787.773
12379	798.324
12380	780.740
12381	821.623
12382	787.334
12383	815.908
12384	821.623
12385	808.875
12386	850.637
12387	801.401
12388	833.932
12389	811.952
12390	798.324
12391	811.952
12392	776.783
12393	823.821
12394	804.918
12395	804.918
12396	817.667
12397	788.653
12398	836.570
12399	801.401
12400	829.976
12401	830.855
12402	801.841
12403	840.087
12404	800.082
12405	826.459
12406	811.073
12407	794.807
12408	806.677
12409	764.474
12410	809.314
12411	773.266
12412	829.976
12413	818.546
12414	808.875
12415	827.778
12416	790.851
12417	833.053
12418	801.401
12419	802.280
12420	811.952
12421	793.049
12422	850.637
12423	808.435
12424	824.700
12425	837.009
12426	812.831
12427	853.275
12428	808.435
12429	823.381
12430	815.908
12431	777.223
12432	811.952
12433	783.817
12434	817.667
12435	812.831
12436	791.290
12437	829.536
12438	790.851
12439	837.009
12440	826.019
12441	801.841
12442	815.469
12443	771.508
12444	815.029
12445	786.455
12446	787.773
12447	793.488
12448	770.189
12449	826.019
12450	797.884
12451	822.942
12452	819.425
12453	793.049
12454	844.043
12455	808.435
12456	838.768
12457	822.502
12458	805.358
12459	826.019
12460	787.334
12461	829.976
12462	815.469
12463	801.841
12464	815.469
12465	781.619
12466	832.613
12467	811.952
12468	815.908
12469	814.589
12470	774.146
12471	827.338
12472	796.126
12473	808.875
12474	807.116
12475	773.706
12476	811.952
12477	797.884
12478	836.570
12479	826.459
12480	792.609
12481	827.778
12482	790.851
12483	837.009
12484	833.053
12485	808.875
12486	815.469
12487	780.740
12488	822.502
12489	801.401
12490	808.875
12491	813.710
12492	777.223
12493	829.536
12494	801.401
12495	822.502
12496	811.952
12497	794.807
12498	847.120
12499	818.985
12500	851.077
12501	811.952
12502	787.773
12503	808.435
12504	773.266
12505	817.667
12506	794.368
12507	798.324
12508	815.469
12509	754.363
12510	804.478
12511	808.435
12512	844.043
12513	822.502
12514	829.976
12515	852.396
12516	819.865
12517	868.661
12518	840.087
12519	823.821
12520	816.348
12521	780.300
12522	817.667
12523	787.334
12524	796.566
12525	799.643
12526	771.068
12527	822.502
12528	804.918
12529	822.942
12530	820.744
12531	794.807
12532	840.087
12533	797.884
12534	808.875
12535	794.807
12536	760.078
12537	800.082
12538	773.706
12539	808.875
12540	799.643
12541	787.773
12542	822.502
12543	792.609
12544	831.734
12545	822.942
12546	805.358
12547	826.019
12548	789.092
12549	833.492
12550	806.677
12551	805.358
12552	831.294
12553	801.841
12554	840.087
12555	815.469
12556	819.425
12557	817.227
12558	781.619
12559	828.217
12560	801.401
12561	819.425
12562	820.304
12563	791.290
12564	833.053
12565	801.401
12566	829.976
12567	822.942
12568	787.773
12569	818.985
12570	783.817
12571	833.492
12572	820.744
12573	794.807
12574	804.918
12575	769.750
12576	808.875
12577	804.918
12578	794.807
12579	810.193
12580	785.575
12581	833.492
12582	815.469
12583	815.908
12584	829.536
12585	795.247
12586	848.879
12587	830.415
12588	844.043
12589	834.811
12590	791.290
12591	824.261
12592	787.334
12593	805.358
12594	812.391
12595	793.049
12596	836.570
12597	787.334
12598	844.043
12599	842.285
12600	801.841
12601	827.778
12602	787.334
12603	812.391
12604	794.368
12605	761.397
12606	787.334
12607	759.199
12608	812.391
12609	804.918
12610	794.807
12611	816.348
12612	786.015
12613	833.053
12614	808.435
12615	815.908
12616	815.469
12617	808.875
12618	826.019
12619	792.609
12620	836.130
12621	787.334
12622	794.807
12623	818.985
12624	796.126
12625	838.768
12626	815.469
12627	815.908
12628	823.381
12629	791.290
12630	841.845
12631	815.469
12632	822.942
12633	818.106
12634	780.740
12635	811.952
12636	783.817
12637	833.492
12638	833.492
12639	808.875
12640	829.536
12641	795.247
12642	837.009
12643	818.106
12644	787.773
12645	797.005
12646	769.750
12647	817.667
12648	801.401
12649	787.773
12650	797.884
12651	768.870
12652	820.304
12653	801.401
12654	789.532
12655	803.599
12656	787.773
12657	840.087
12658	815.469
12659	845.801
12660	852.396
12661	829.976
12662	864.704
12663	822.502
12664	845.801
12665	822.502
12666	787.773
12667	813.710
12668	778.542
12669	815.908
12670	797.884
12671	777.223
12672	803.599
12673	767.991
12674	818.546
12675	804.918
12676	803.599
12677	803.160
12678	776.783
12679	855.033
12680	849.758
12681	854.594
12682	837.009
12683	790.411
12684	822.502
12685	780.300
12686	796.566
12687	791.290
12688	766.672
12689	815.469
12690	794.368
12691	829.976
12692	815.029
12693	773.706
12694	813.710
12695	780.300
12696	809.314
12697	804.918
12698	794.807
12699	808.435
12700	775.025
12701	822.942
12702	806.677
12703	791.290
12704	815.469
12705	781.619
12706	843.603
12707	826.019
12708	844.043
12709	840.526
12710	798.324
12711	845.362
12712	814.150
12713	844.043
12714	837.449
12715	808.875
12716	854.154
12717	782.059
12718	822.063
12719	783.817
12720	794.807
12721	782.498
12722	747.330
12723	790.851
12724	776.783
12725	829.976
12726	833.932
12727	815.908
12728	843.603
12729	810.193
12730	844.043
12731	822.502
12732	801.841
12733	822.502
12734	783.817
12735	835.251
12736	817.667
12737	798.324
12738	801.841
12739	765.354
12740	821.623
12741	808.435
12742	822.942
12743	834.372
12744	812.391
12745	850.637
12746	804.918
12747	801.841
12748	800.082
12749	759.639
12750	815.469
12751	801.401
12752	815.908
12753	797.884
12754	780.740
12755	838.768
12756	785.575
12757	803.599
12758	790.851
12759	759.639
12760	787.334
12761	757.441
12762	844.043
12763	856.352
12764	822.942
12765	857.671
12766	827.778
12767	865.144
12768	860.308
12769	837.009
12770	815.469
12771	793.488
12772	829.976
12773	808.435
12774	787.773
12775	800.522
12776	762.716
12777	806.677
12778	794.807
12779	787.773
12780	804.918
12781	780.740
12782	818.106
12783	780.300
12784	787.773
12785	796.126
12786	778.542
12787	845.801
12788	840.087
12789	858.110
12790	848.439
12791	815.908
12792	847.120
12793	780.300
12794	822.942
12795	822.942
12796	805.358
12797	818.106
12798	780.300
12799	837.009
12800	822.502
12801	815.908
12802	826.019
12803	789.532
12804	851.077
12805	864.704
12806	858.110
12807	730.625
12808	721.833
12809	801.401
12810	759.199
12811	764.914
12812	772.827
12813	780.740
12814	793.928
12815	811.952
12816	889.762
12817	786.015
12818	808.875
12819	827.778
12820	805.358
12821	857.671
12822	801.401
12823	801.841
12824	807.995
12825	817.667
12826	843.603
12827	780.300
12828	808.435
12829	720.514
12830	731.504
12831	894.598
12832	841.845
12833	852.835
12834	857.671
12835	829.976
12836	820.304
12837	741.615
12838	793.049
12839	801.401
12840	822.942
12841	822.502
12842	755.682
12843	875.695
12844	928.008
12845	984.717
12846	973.727
12847	807.116
12848	780.300
12849	731.064
12850	752.605
12851	756.561
12852	739.417
12853	769.750
12854	702.930
12855	738.538
12856	760.958
12857	752.605
12858	836.570
12859	815.469
12860	858.110
12861	868.661
12862	819.425
12863	780.300
12864	660.727
12865	792.169
12866	829.976
12867	763.156
12868	822.502
12869	808.435
12870	851.077
12871	870.859
12872	873.936
12873	889.322
12874	815.469
12875	808.875
12876	803.160
12877	803.599
12878	887.564
12879	893.718
12880	886.245
12881	891.960
12882	801.841
12883	750.407
12884	636.109
12885	793.049
12886	861.188
12887	815.908
12888	748.649
12889	716.118
12890	820.744
12891	778.542
12892	773.706
12893	817.227
12894	798.324
12895	892.839
12896	850.637
12897	794.807
12898	757.001
12899	717.437
12900	773.266
12901	801.401
12902	882.728
12903	858.110
12904	815.469
12905	891.081
12906	866.463
12907	856.352
12908	758.759
12909	798.324
12910	871.738
12911	801.401
12912	819.425
12913	815.908
12914	749.088
12915	764.474
12916	731.064
12917	781.619
12918	762.276
12919	738.538
12920	874.815
12921	933.283
12922	998.784
12923	875.255
12924	886.245
12925	866.902
12926	787.773
12927	738.098
12928	703.809
12929	698.094
12930	699.413
12931	661.167
12932	829.536
12933	898.115
12934	868.661
12935	852.396
12936	815.908
12937	868.221
12938	809.314
12939	829.976
12940	802.280
12941	766.672
12942	837.449
12943	889.322
12944	1009.335
12945	896.796
12946	676.993
12947	600.941
12948	560.497
12949	680.510
12950	617.646
12951	634.791
12952	801.401
12953	843.603
12954	1073.078
12955	1135.502
12956	935.481
12957	924.491
12958	942.515
12959	919.655
12960	815.469
12961	787.773
12962	752.165
12963	703.369
12964	755.682
12965	709.963
12966	735.021
12967	759.639
12968	801.841
12969	874.376
12970	984.277
12971	956.582
12972	788.213
12973	576.763
12974	632.593
12975	681.828
12976	689.302
12977	735.460
12978	720.074
12979	815.469
12980	920.974
12981	1021.644
12982	1018.127
12983	877.893
12984	857.671
12985	878.772
12986	865.144
12987	772.827
12988	752.605
12989	843.164
12990	801.401
12991	935.481
12992	979.881
12993	797.005
12994	736.340
12995	671.278
12996	675.234
12997	668.201
12998	706.886
12999	862.946
13000	841.845
13001	763.156
13002	800.082
13003	811.512
13004	801.401
13005	745.132
13006	766.672
13007	747.330
13008	760.518
13009	840.087
13010	808.435
13011	889.762
13012	982.958
13013	975.485
13014	949.109
13015	826.019
13016	777.223
13017	752.605
13018	731.504
13019	738.098
13020	667.761
13021	757.880
13022	809.754
13023	815.908
13024	849.758
13025	798.324
13026	973.727
13027	942.075
13028	879.211
13029	786.015
13030	689.302
13031	718.755
13032	843.603
13033	974.166
13034	778.542
13035	717.437
13036	771.508
13037	740.296
13038	800.082
13039	781.179
13040	731.504
13041	780.300
13042	801.401
13043	868.661
13044	872.617
13045	868.661
13046	878.772
13047	829.536
13048	916.138
13049	821.623
13050	759.639
13051	917.457
13052	1010.654
13053	907.346
13054	729.306
13055	620.723
13056	644.902
13057	629.076
13058	719.195
13059	695.896
13060	746.890
13061	851.077
13062	927.128
13063	930.206
13064	840.087
13065	787.773
13066	756.561
13067	771.948
13068	873.936
13069	826.019
13070	858.110
13071	896.356
13072	854.154
13073	872.178
13074	815.469
13075	803.599
13076	804.918
13077	799.643
13078	885.366
13079	869.980
13080	815.908
13081	846.241
13082	891.960
13083	861.188
13084	766.233
13085	710.403
13086	652.375
13087	675.234
13088	738.098
13089	780.300
13090	822.942
13091	872.617
13092	801.841
13093	758.320
13094	674.795
13095	706.446
13096	833.053
13097	928.447
13098	1100.333
13099	1001.861
13100	844.043
13101	671.718
13102	640.066
13103	782.059
13104	729.306
13105	724.470
13106	748.209
13107	833.492
13108	928.008
13109	864.704
13110	861.627
13111	824.700
13112	780.300
13113	850.637
13114	836.570
13115	858.110
13116	800.082
13117	787.773
13118	864.704
13119	808.435
13120	852.835
13121	815.469
13122	808.875
13123	840.087
13124	736.340
13125	752.605
13126	688.862
13127	654.133
13128	756.122
13129	801.401
13130	855.912
13131	885.806
13132	1002.301
13133	1010.214
13134	822.942
13135	769.750
13136	713.480
13137	717.437
13138	841.405
13139	925.810
13140	843.603
13141	674.795
13142	717.437
13143	775.025
13144	777.223
13145	815.908
13146	755.682
13147	770.189
13148	829.976
13149	829.976
13150	926.249
13151	871.738
13152	759.639
13153	880.091
13154	998.784
13155	829.536
13156	653.694
13157	678.751
13158	734.142
13159	731.504
13160	762.716
13161	731.064
13162	819.425
13163	861.627
13164	851.077
13165	940.317
13166	928.008
13167	942.515
13168	819.425
13169	759.639
13170	787.334
13171	716.997
13172	829.976
13173	840.526
13174	745.571
13175	800.962
13176	773.266
13177	735.021
13178	706.886
13179	692.819
13180	822.502
13181	885.806
13182	950.428
13183	970.210
13184	910.863
13185	952.626
13186	871.738
13187	803.599
13188	716.997
13189	689.302
13190	731.064
13191	762.716
13192	838.768
13193	861.188
13194	745.571
13195	759.639
13196	720.514
13197	822.942
13198	874.815
13199	829.976
13200	850.637
13201	780.300
13202	801.841
13203	783.377
13204	745.571
13205	797.884
13206	725.789
13207	744.692
13208	749.528
13209	766.672
13210	773.266
13211	787.334
13212	886.245
13213	853.275
13214	844.043
13215	920.974
13216	899.873
13217	924.930
13218	882.289
13219	844.043
13220	849.758
13221	813.710
13222	928.447
13223	982.519
13224	829.976
13225	674.795
13226	639.626
13227	708.644
13228	759.199
13229	924.930
13230	921.414
13231	798.324
13232	827.778
13233	787.334
13234	829.976
13235	762.276
13236	707.765
13237	709.963
13238	674.795
13239	710.403
13240	733.262
13241	740.296
13242	787.334
13243	801.401
13244	861.188
13245	905.588
13246	917.897
13247	1012.412
13248	966.693
13249	801.841
13250	691.939
13251	647.100
13252	718.316
13253	752.165
13254	794.807
13255	800.962
13256	819.865
13257	899.873
13258	878.772
13259	872.178
13260	865.144
13261	857.671
13262	940.317
13263	857.671
13264	844.043
13265	717.876
13266	655.013
13267	762.716
13268	748.649
13269	738.538
13270	815.469
13271	837.009
13272	1065.604
13273	1047.580
13274	942.515
13275	833.053
13276	678.312
13277	697.654
13278	696.335
13279	720.953
13280	729.745
13281	671.278
13282	742.054
13283	801.401
13284	864.704
13285	885.806
13286	759.199
13287	724.910
13288	716.997
13289	685.785
13290	744.252
13291	769.750
13292	851.077
13293	858.550
13294	887.124
13295	942.515
13296	935.041
13297	1012.852
13298	928.447
13299	822.942
13300	822.502
13301	738.098
13302	777.223
13303	752.605
13304	676.993
13305	764.914
13306	759.199
13307	829.976
13308	901.631
13309	995.267
13310	1042.305
13311	870.419
13312	731.504
13313	775.025
13314	909.544
13315	837.888
13316	625.559
13317	647.100
13318	687.104
13319	706.886
13320	801.401
13321	864.704
13322	886.245
13323	760.078
13324	661.167
13325	695.896
13326	716.997
13327	805.358
13328	822.502
13329	771.948
13330	878.772
13331	892.839
13332	851.077
13333	852.396
13334	815.908
13335	838.328
13336	784.257
13337	818.546
13338	842.285
13339	815.908
13340	880.530
13341	869.980
13342	935.481
13343	958.340
13344	851.077
13345	787.334
13346	787.334
13347	852.835
13348	757.880
13349	763.156
13350	917.457
13351	815.469
13352	808.875
13353	886.245
13354	750.407
13355	632.593
13356	604.458
13357	749.088
13358	840.526
13359	885.366
13360	831.294
13361	720.514
13362	731.504
13363	720.953
13364	703.369
13365	794.368
13366	808.435
13367	829.976
13368	823.821
13369	801.841
13370	864.704
13371	871.738
13372	910.863
13373	850.197
13374	764.035
13375	794.368
13376	745.132
13377	903.829
13378	1009.335
13379	891.520
13380	863.386
13381	771.508
13382	858.110
13383	924.930
13384	889.762
13385	865.584
13386	772.387
13387	745.571
13388	687.543
13389	627.317
13390	698.973
13391	695.896
13392	675.234
13393	759.639
13394	838.328
13395	922.293
13396	868.221
13397	822.942
13398	812.831
13399	804.918
13400	932.843
13401	885.806
13402	745.571
13403	696.335
13404	708.205
13405	829.536
13406	871.738
13407	928.447
13408	902.510
13409	675.234
13410	743.813
13411	899.873
13412	872.178
13413	831.294
13414	717.437
13415	783.377
13416	850.637
13417	928.447
13418	854.594
13419	724.910
13420	794.368
13421	822.502
13422	826.459
13423	832.613
13424	745.571
13425	818.985
13426	770.629
13427	777.223
13428	729.745
13429	671.718
13430	776.783
13431	787.334
13432	900.312
13433	882.728
13434	851.077
13435	800.962
13436	768.870
13437	815.908
13438	808.435
13439	815.908
13440	815.469
13441	857.231
13442	940.756
13443	984.277
13444	1128.907
13445	1025.161
13446	738.538
13447	624.680
13448	562.256
13449	641.824
13450	704.688
13451	611.931
13452	665.563
13453	731.064
13454	799.203
13455	819.425
13456	799.203
13457	857.671
13458	864.704
13459	900.312
13460	872.617
13461	840.526
13462	857.671
13463	848.879
13464	879.211
13465	855.912
13466	796.126
13467	840.966
13468	827.778
13469	900.312
13470	985.596
13471	857.671
13472	913.940
13473	822.502
13474	759.639
13475	750.407
13476	722.712
13477	641.385
13478	576.323
13479	623.801
13480	787.334
13481	829.536
13482	894.158
13483	862.946
13484	872.178
13485	884.047
13486	831.294
13487	858.110
13488	804.918
13489	835.251
13490	861.188
13491	783.377
13492	787.773
13493	776.783
13494	796.566
13495	900.752
13496	927.568
13497	911.742
13498	787.334
13499	706.886
13500	716.118
13501	695.896
13502	741.615
13503	767.112
13504	822.942
13505	794.368
13506	787.773
13507	856.792
13508	808.435
13509	791.290
13510	783.817
13511	810.193
13512	919.216
13513	1026.919
13514	956.582
13515	673.916
13516	508.624
13517	634.791
13518	731.064
13519	815.908
13520	892.839
13521	836.570
13522	900.312
13523	906.907
13524	865.144
13525	880.530
13526	868.221
13527	875.695
13528	967.133
13529	900.312
13530	773.266
13531	724.031
13532	774.585
13533	772.387
13534	770.189
13535	826.019
13536	681.828
13537	742.054
13538	745.132
13539	833.492
13540	838.328
13541	760.958
13542	776.783
13543	745.132
13544	763.156
13545	793.928
13546	801.401
13547	884.487
13548	899.873
13549	914.380
13550	969.331
13551	782.059
13552	704.248
13553	675.234
13554	655.892
13555	702.930
13556	727.547
13557	804.918
13558	871.738
13559	928.447
13560	928.008
13561	850.637
13562	861.188
13563	866.463
13564	844.043
13565	762.716
13566	678.312
13567	733.262
13568	832.613
13569	900.312
13570	928.008
13571	882.289
13572	921.414
13573	879.211
13574	789.532
13575	848.879
13576	801.401
13577	817.667
13578	904.709
13579	873.936
13580	801.401
13581	720.514
13582	703.369
13583	750.847
13584	676.993
13585	662.486
13586	667.761
13587	742.054
13588	808.875
13589	787.773
13590	840.087
13591	857.671
13592	875.695
13593	857.671
13594	840.526
13595	759.199
13596	674.795
13597	738.538
13598	800.522
13599	801.401
13600	887.124
13601	875.255
13602	886.245
13603	966.693
13604	899.433
13605	890.202
13606	776.783
13607	717.437
13608	731.064
13609	751.726
13610	844.043
13611	806.677
13612	970.210
13613	1047.580
13614	791.730
13615	764.914
13616	716.997
13617	717.437
13618	799.643
13619	724.910
13620	766.672
13621	762.716
13622	801.841
13623	840.966
13624	804.039
13625	844.043
13626	840.087
13627	829.976
13628	889.762
13629	913.940
13630	928.447
13631	790.851
13632	675.234
13633	688.862
13634	697.654
13635	787.773
13636	871.738
13637	801.841
13638	760.958
13639	733.262
13640	755.682
13641	727.547
13642	791.290
13643	830.415
13644	815.908
13645	899.873
13646	885.806
13647	900.312
13648	882.728
13649	829.976
13650	866.463
13651	843.603
13652	858.110
13653	850.637
13654	733.262
13655	749.967
13656	766.233
13657	787.773
13658	787.773
13659	787.773
13660	910.423
13661	885.806
13662	872.178
13663	816.787
13664	703.369
13665	773.266
13666	759.199
13667	773.706
13668	777.662
13669	719.195
13670	743.373
13671	741.615
13672	794.807
13673	837.449
13674	833.492
13675	891.520
13676	871.738
13677	865.144
13678	861.627
13679	810.193
13680	850.637
13681	822.502
13682	801.841
13683	801.401
13684	785.575
13685	879.211
13686	829.536
13687	759.639
13688	807.556
13689	765.793
13690	805.358
13691	829.976
13692	854.594
13693	822.502
13694	812.391
13695	823.821
13696	794.807
13697	845.801
13698	899.873
13699	731.064
13700	676.993
13701	668.640
13702	675.234
13703	782.059
13704	796.126
13705	824.261
13706	829.976
13707	829.976
13708	871.738
13709	833.053
13710	854.594
13711	893.279
13712	865.144
13713	850.637
13714	817.667
13715	815.469
13716	787.334
13717	815.908
13718	840.087
13719	787.334
13720	786.015
13721	798.324
13722	820.304
13723	882.289
13724	783.817
13725	763.156
13726	750.407
13727	740.736
13728	822.942
13729	815.469
13730	815.908
13731	822.502
13732	804.039
13733	851.077
13734	826.019
13735	808.875
13736	812.391
13737	799.203
13738	882.289
13739	833.053
13740	805.358
13741	809.754
13742	766.672
13743	808.435
13744	773.266
13745	791.730
13746	808.435
13747	822.942
13748	854.154
13749	808.435
13750	829.976
13751	807.995
13752	780.740
13753	818.985
13754	787.334
13755	819.425
13756	822.942
13757	794.807
13758	833.053
13759	787.334
13760	837.009
13761	842.724
13762	813.710
13763	864.704
13764	808.435
13765	815.908
13766	789.971
13767	742.054
13768	783.817
13769	752.165
13770	787.773
13771	778.542
13772	773.706
13773	833.053
13774	822.502
13775	837.009
13776	826.459
13777	844.043
13778	889.762
13779	801.401
13780	794.368
13781	791.730
13782	775.464
13783	826.019
13784	801.401
13785	805.358
13786	801.841
13787	769.750
13788	815.469
13789	787.334
13790	829.976
13791	861.627
13792	816.348
13793	836.570
13794	787.334
13795	800.962
13796	803.160
13797	782.498
13798	840.526
13799	822.502
13800	808.875
13801	811.952
13802	775.904
13803	837.009
13804	815.469
13805	808.875
13806	821.623
13807	785.136
13808	859.429
13809	843.603
13810	822.942
13811	815.469
13812	776.783
13813	829.096
13814	801.401
13815	815.908
13816	814.589
13817	776.783
13818	818.985
13819	801.401
13820	800.082
13821	811.073
13822	777.662
13823	829.976
13824	813.710
13825	815.908
13826	815.469
13827	780.300
13828	824.261
13829	806.677
13830	802.720
13831	822.502
13832	791.730
13833	840.966
13834	817.227
13835	815.908
13836	815.469
13837	780.300
13838	829.096
13839	801.401
13840	808.875
13841	807.556
13842	773.706
13843	830.415
13844	769.750
13845	832.174
13846	826.019
13847	815.908
13848	829.536
13849	790.851
13850	829.976
13851	812.831
13852	787.773
13853	822.502
13854	787.773
13855	822.942
13856	814.589
13857	791.290
13858	822.502
13859	787.334
13860	829.976
13861	816.348
13862	788.213
13863	829.976
13864	807.116
13865	844.043
13866	825.580
13867	787.773
13868	815.469
13869	785.575
13870	815.908
13871	801.401
13872	773.706
13873	811.952
13874	787.334
13875	829.976
13876	829.976
13877	798.324
13878	835.251
13879	794.368
13880	822.942
13881	814.589
13882	794.807
13883	836.570
13884	794.368
13885	812.391
13886	809.314
13887	787.773
13888	837.449
13889	830.855
13890	837.009
13891	815.908
13892	780.740
13893	826.019
13894	787.334
13895	787.773
13896	780.740
13897	753.924
13898	806.237
13899	787.334
13900	801.841
13901	815.469
13902	788.213
13903	844.043
13904	824.261
13905	829.976
13906	837.888
13907	800.522
13908	842.724
13909	815.469
13910	829.976
13911	836.570
13912	792.609
13913	836.570
13914	829.536
13915	815.908
13916	808.435
13917	759.199
13918	796.566
13919	780.300
13920	759.639
13921	792.609
13922	759.199
13923	807.116
13924	801.401
13925	805.358
13926	853.275
13927	826.019
13928	863.386
13929	840.526
13930	808.875
13931	831.294
13932	787.334
13933	821.183
13934	813.710
13935	788.213
13936	818.985
13937	783.817
13938	824.700
13939	815.029
13940	787.773
13941	826.019
13942	794.368
13943	826.459
13944	824.700
13945	794.807
13946	833.053
13947	787.773
13948	838.328
13949	813.710
13950	808.875
13951	813.710
13952	781.179
13953	837.888
13954	815.029
13955	798.324
13956	804.918
13957	772.387
13958	824.700
13959	811.952
13960	815.908
13961	818.985
13962	794.807
13963	818.985
13964	766.672
13965	815.469
13966	783.817
13967	822.942
13968	822.502
13969	792.169
13970	836.130
13971	804.918
13972	815.908
13973	822.063
13974	794.368
13975	842.285
13976	815.469
13977	822.942
13978	835.690
13979	787.334
13980	833.492
13981	810.193
13982	787.773
13983	790.851
13984	766.233
13985	815.908
13986	794.368
13987	780.740
13988	829.536
13989	835.690
13990	886.245
13991	849.758
13992	801.841
13993	815.469
13994	786.455
13995	815.908
13996	792.609
13997	766.672
13998	818.985
13999	787.334
14000	821.183
14001	807.116
14002	766.672
14003	819.865
14004	801.401
14005	815.908
14006	820.304
14007	792.169
14008	845.801
14009	829.536
14010	822.942
14011	831.734
14012	793.928
14013	840.526
14014	815.469
14015	808.875
14016	811.952
14017	776.783
14018	817.667
14019	804.918
14020	787.773
14021	815.469
14022	787.334
14023	829.976
14024	817.227
14025	789.532
14026	828.657
14027	797.884
14028	829.536
14029	817.667
14030	777.223
14031	815.469
14032	773.266
14033	798.324
14034	794.807
14035	759.639
14036	818.985
14037	801.401
14038	824.700
14039	836.130
14040	808.435
14041	857.671
14042	836.570
14043	822.942
14044	836.570
14045	800.962
14046	836.570
14047	818.985
14048	787.773
14049	808.435
14050	780.740
14051	815.469
14052	780.300
14053	812.391
14054	804.918
14055	780.740
14056	828.657
14057	801.401
14058	815.908
14059	813.271
14060	782.498
14061	831.294
14062	815.469
14063	815.908
14064	821.623
14065	788.653
14066	830.855
14067	808.435
14068	789.532
14069	801.401
14070	755.682
14071	810.193
14072	812.831
14073	822.942
14074	840.087
14075	804.918
14076	849.318
14077	840.966
14078	815.908
14079	833.932
14080	787.334
14081	829.976
14082	815.469
14083	794.807
14084	815.469
14085	776.783
14086	816.348
14087	808.875
14088	775.464
14089	815.469
14090	787.334
14091	822.942
14092	813.271
14093	787.773
14094	828.657
14095	797.884
14096	829.976
14097	822.063
14098	787.773
14099	835.690
14100	801.401
14101	817.667
14102	805.358
14103	778.981
14104	815.469
14105	787.334
14106	815.908
14107	818.546
14108	794.807
14109	836.570
14110	801.401
14111	822.942
14112	818.985
14113	789.092
14114	836.570
14115	808.435
14116	808.875
14117	813.710
14118	771.948
14119	815.469
14120	801.401
14121	819.425
14122	833.053
14123	799.643
14124	849.318
14125	829.536
14126	808.875
14127	814.589
14128	784.257
14129	830.415
14130	815.469
14131	798.324
14132	815.469
14133	782.938
14134	826.459
14135	804.918
14136	777.223
14137	808.875
14138	769.750
14139	808.875
14140	815.029
14141	794.807
14142	836.570
14143	813.710
14144	851.077
14145	836.570
14146	801.841
14147	833.053
14148	801.401
14149	829.976
14150	816.787
14151	787.773
14152	808.435
14153	780.740
14154	822.502
14155	801.401
14156	808.875
14157	817.227
14158	782.059
14159	822.502
14160	801.401
14161	804.918
14162	817.667
14163	781.179
14164	833.492
14165	808.435
14166	803.599
14167	815.469
14168	780.300
14169	822.942
14170	804.918
14171	787.773
14172	815.469
14173	780.300
14174	826.459
14175	819.865
14176	798.324
14177	829.536
14178	787.334
14179	826.459
14180	824.700
14181	794.807
14182	836.570
14183	801.401
14184	829.976
14185	817.667
14186	780.740
14187	829.536
14188	794.368
14189	812.391
14190	812.831
14191	782.498
14192	831.294
14193	808.435
14194	815.908
14195	818.985
14196	787.773
14197	833.053
14198	801.401
14199	822.942
14200	820.304
14201	783.377
14202	822.502
14203	788.213
14204	801.841
14205	814.150
14206	780.740
14207	836.130
14208	815.469
14209	815.908
14210	829.536
14211	794.368
14212	838.768
14213	815.469
14214	815.908
14215	821.623
14216	774.146
14217	815.908
14218	794.368
14219	787.773
14220	808.435
14221	783.817
14222	842.285
14223	822.502
14224	817.667
14225	841.845
14226	805.358
14227	833.492
14228	829.976
14229	798.324
14230	840.526
14231	794.368
14232	815.908
14233	794.368
14234	787.773
14235	834.811
14236	801.401
14237	829.976
14238	816.348
14239	787.773
14240	822.502
14241	787.334
14242	815.908
14243	807.995
14244	777.662
14245	822.502
14246	808.435
14247	808.875
14248	812.831
14249	777.662
14250	826.459
14251	808.435
14252	808.875
14253	818.985
14254	766.672
14255	811.952
14256	787.334
14257	837.009
14258	837.009
14259	815.908
14260	843.603
14261	808.435
14262	831.734
14263	814.589
14264	778.981
14265	822.502
14266	797.884
14267	819.425
14268	814.150
14269	762.276
14270	814.150
14271	801.401
14272	803.599
14273	815.469
14274	788.213
14275	837.009
14276	827.778
14277	822.942
14278	843.603
14279	801.401
14280	837.009
14281	822.502
14282	794.807
14283	822.502
14284	787.334
14285	817.667
14286	805.797
14287	773.706
14288	822.502
14289	794.368
14290	815.908
14291	811.952
14292	780.740
14293	830.415
14294	806.677
14295	815.908
14296	815.469
14297	780.740
14298	826.459
14299	806.677
14300	794.807
14301	815.469
14302	780.300
14303	811.952
14304	804.918
14305	773.706
14306	815.469
14307	780.300
14308	815.908
14309	811.512
14310	780.740
14311	831.294
14312	815.908
14313	829.976
14314	834.811
14315	806.237
14316	859.429
14317	840.087
14318	829.976
14319	827.778
14320	780.740
14321	829.976
14322	808.435
14323	794.807
14324	815.469
14325	785.575
14326	826.459
14327	812.391
14328	787.773
14329	836.570
14330	804.039
14331	823.821
14332	809.754
14333	773.706
14334	818.985
14335	787.334
14336	801.401
14337	804.918
14338	776.783
14339	827.778
14340	808.435
14341	815.908
14342	818.985
14343	782.938
14344	832.613
14345	822.502
14346	812.391
14347	801.401
14348	773.266
14349	832.613
14350	818.985
14351	801.841
14352	818.985
14353	780.300
14354	815.908
14355	795.686
14356	787.773
14357	812.391
14358	796.126
14359	850.637
14360	822.502
14361	835.690
14362	833.053
14363	801.401
14364	843.164
14365	815.469
14366	808.875
14367	818.985
14368	783.817
14369	826.459
14370	801.401
14371	787.773
14372	808.435
14373	776.783
14374	822.942
14375	810.193
14376	787.773
14377	817.227
14378	787.773
14379	826.459
14380	822.502
14381	794.807
14382	832.174
14383	797.884
14384	826.459
14385	810.633
14386	776.344
14387	815.469
14388	787.334
14389	798.324
14390	803.160
14391	789.532
14392	849.758
14393	841.845
14394	851.077
14395	850.637
14396	794.368
14397	840.966
14398	822.502
14399	808.875
14400	815.469
14401	771.948
14402	796.566
14403	786.894
14404	767.991
14405	819.865
14406	793.488
14407	835.251
14408	815.469
14409	801.841
14410	843.603
14411	811.952
14412	829.976
14413	810.193
14414	777.662
14415	831.294
14416	801.401
14417	829.976
14418	816.787
14419	773.706
14420	822.942
14421	787.334
14422	801.841
14423	807.556
14424	776.783
14425	826.459
14426	810.193
14427	801.841
14428	826.019
14429	794.368
14430	841.405
14431	822.502
14432	808.875
14433	822.502
14434	783.817
14435	829.976
14436	813.710
14437	787.773
14438	815.469
14439	785.575
14440	822.942
14441	815.908
14442	787.773
14443	831.294
14444	801.401
14445	818.985
14446	818.985
14447	783.377
14448	829.536
14449	797.884
14450	808.875
14451	813.271
14452	777.223
14453	822.063
14454	800.522
14455	809.754
14456	818.106
14457	771.508
14458	827.778
14459	787.334
14460	844.043
14461	829.976
14462	801.841
14463	829.536
14464	801.401
14465	844.043
14466	828.217
14467	793.049
14468	826.019
14469	787.334
14470	816.348
14471	810.193
14472	780.740
14473	832.613
14474	806.677
14475	815.908
14476	822.502
14477	788.653
14478	837.888
14479	811.952
14480	801.841
14481	815.469
14482	782.938
14483	821.183
14484	808.435
14485	787.773
14486	815.469
14487	787.334
14488	819.425
14489	787.334
14490	815.908
14491	829.536
14492	808.435
14493	808.875
14494	846.681
14495	815.469
14496	791.290
14497	835.690
14498	801.401
14499	819.425
14500	812.391
14501	775.025
14502	817.667
14503	798.764
14504	759.639
14505	819.425
14506	808.435
14507	812.391
14508	801.401
14509	770.629
14510	831.734
14511	829.976
14512	808.875
14513	836.570
14514	797.884
14515	837.888
14516	829.976
14517	793.049
14518	843.603
14519	829.536
14520	829.976
14521	831.734
14522	779.861
14523	823.821
14524	810.193
14525	794.807
14526	818.985
14527	783.817
14528	803.599
14529	799.203
14530	763.156
14531	808.435
14532	787.334
14533	808.875
14534	811.512
14535	780.740
14536	833.492
14537	813.710
14538	801.841
14539	828.657
14540	801.401
14541	851.077
14542	838.768
14543	801.841
14544	834.811
14545	801.401
14546	822.942
14547	819.425
14548	787.773
14549	829.536
14550	797.884
14551	815.908
14552	811.073
14553	778.102
14554	829.096
14555	801.401
14556	805.358
14557	813.710
14558	779.421
14559	829.976
14560	787.334
14561	821.183
14562	822.942
14563	787.773
14564	815.469
14565	785.575
14566	822.942
14567	815.908
14568	787.773
14569	825.580
14570	801.401
14571	812.391
14572	824.261
14573	797.005
14574	847.120
14575	829.536
14576	815.908
14577	826.019
14578	789.092
14579	829.976
14580	817.227
14581	794.807
14582	826.019
14583	787.334
14584	819.425
14585	807.116
14586	773.706
14587	818.985
14588	780.300
14589	794.807
14590	807.995
14591	789.092
14592	849.318
14593	836.570
14594	822.942
14595	834.811
14596	798.324
14597	840.526
14598	815.469
14599	787.773
14600	808.435
14601	780.300
14602	819.425
14603	806.677
14604	780.740
14605	815.469
14606	787.334
14607	817.667
14608	815.908
14609	787.773
14610	833.053
14611	797.884
14612	811.952
14613	807.116
14614	777.662
14615	828.217
14616	808.435
14617	808.875
14618	808.435
14619	769.310
14620	815.908
14621	790.851
14622	801.841
14623	836.570
14624	813.710
14625	856.352
14626	837.449
14627	805.358
14628	842.285
14629	797.884
14630	837.009
14631	830.415
14632	798.324
14633	831.294
14634	787.334
14635	812.391
14636	803.599
14637	776.783
14638	826.459
14639	797.005
14640	801.841
14641	808.435
14642	776.344
14643	826.019
14644	814.589
14645	801.841
14646	815.469
14647	779.421
14648	829.976
14649	815.469
14650	787.773
14651	807.556
14652	767.991
14653	815.908
14654	811.952
14655	787.773
14656	815.469
14657	787.334
14658	844.043
14659	841.845
14660	819.425
14661	854.154
14662	811.952
14663	844.043
14664	822.502
14665	822.942
14666	824.261
14667	788.653
14668	831.734
14669	815.469
14670	798.324
14671	815.469
14672	779.421
14673	821.183
14674	808.435
14675	787.773
14676	813.710
14677	780.300
14678	819.425
14679	810.633
14680	787.773
14681	829.536
14682	801.401
14683	822.942
14684	818.106
14685	787.773
14686	831.734
14687	809.754
14688	811.952
14689	818.106
14690	784.257
14691	831.734
14692	813.710
14693	805.358
14694	822.502
14695	785.575
14696	831.294
14697	822.502
14698	798.324
14699	826.019
14700	787.334
14701	826.459
14702	812.831
14703	787.773
14704	822.502
14705	787.334
14706	815.908
14707	812.391
14708	781.619
14709	829.536
14710	801.401
14711	819.425
14712	818.985
14713	790.851
14714	837.449
14715	815.469
14716	808.875
14717	818.985
14718	782.059
14719	827.338
14720	801.401
14721	787.773
14722	814.150
14723	778.542
14724	824.700
14725	814.589
14726	794.807
14727	831.294
14728	801.401
14729	844.043
14730	833.053
14731	805.358
14732	833.053
14733	794.368
14734	829.976
14735	814.589
14736	787.773
14737	826.019
14738	787.334
14739	808.875
14740	796.566
14741	760.078
14742	804.918
14743	786.455
14744	801.841
14745	815.908
14746	787.773
14747	843.603
14748	815.469
14749	829.976
14750	827.778
14751	795.247
14752	847.560
14753	832.174
14754	815.908
14755	840.087
14756	801.401
14757	844.043
14758	827.778
14759	801.841
14760	818.985
14761	780.300
14762	801.841
14763	787.334
14764	777.223
14765	827.778
14766	782.059
14767	847.120
14768	815.469
14769	815.908
14770	813.710
14771	774.146
14772	826.459
14773	801.401
14774	791.730
14775	801.401
14776	773.266
14777	815.908
14778	808.875
14779	780.740
14780	815.469
14781	780.300
14782	815.908
14783	811.512
14784	787.773
14785	833.053
14786	807.995
14787	826.459
14788	833.053
14789	805.358
14790	855.912
14791	822.502
14792	829.976
14793	826.898
14794	789.971
14795	830.415
14796	815.469
14797	801.841
14798	818.985
14799	780.300
14800	826.459
14801	811.952
14802	787.773
14803	815.469
14804	783.817
14805	820.744
14806	814.150
14807	787.773
14808	829.536
14809	801.401
14810	822.942
14811	812.391
14812	780.740
14813	829.536
14814	806.677
14815	812.391
14816	815.469
14817	781.179
14818	833.492
14819	815.469
14820	794.807
14821	814.150
14822	783.817
14823	828.217
14824	815.469
14825	794.807
14826	827.778
14827	794.368
14828	822.502
14829	820.304
14830	787.773
14831	836.130
14832	801.401
14833	815.908
14834	819.425
14835	782.059
14836	833.492
14837	812.391
14838	805.358
14839	811.952
14840	775.464
14841	822.942
14842	812.391
14843	791.290
14844	815.469
14845	780.300
14846	822.063
14847	829.536
14848	815.908
14849	855.912
14850	815.469
14851	822.942
14852	805.797
14853	773.706
14854	830.855
14855	820.744
14856	815.908
14857	817.227
14858	769.750
14859	804.918
14860	801.401
14861	794.807
14862	815.469
14863	797.445
14864	837.009
14865	830.415
14866	810.633
14867	848.879
14868	770.189
14869	825.140
14870	797.884
14871	795.686
14872	811.073
14873	788.653
14874	844.922
14875	830.855
14876	808.875
14877	833.053
14878	796.566
14879	810.633
14880	789.092
14881	754.363
14882	801.401
14883	794.368
14884	829.976
14885	841.845
14886	805.797
14887	846.241
14888	826.459
14889	815.908
14890	818.106
14891	781.179
14892	823.821
14893	804.918
14894	787.773
14895	811.952
14896	787.334
14897	821.183
14898	811.512
14899	787.773
14900	822.502
14901	794.368
14902	815.908
14903	808.875
14904	776.783
14905	832.613
14906	808.435
14907	815.908
14908	818.546
14909	779.861
14910	829.976
14911	818.985
14912	815.908
14913	826.898
14914	792.609
14915	844.043
14916	826.019
14917	805.358
14918	826.019
14919	787.334
14920	820.744
14921	814.150
14922	787.773
14923	825.140
14924	797.884
14925	824.700
14926	819.425
14927	787.773
14928	829.536
14929	801.401
14930	815.908
14931	818.985
14932	782.938
14933	826.019
14934	800.962
14935	787.773
14936	796.126
14937	780.300
14938	844.043
14939	836.570
14940	808.875
14941	813.710
14942	769.750
14943	815.908
14944	814.150
14945	794.807
14946	829.536
14947	794.368
14948	829.976
14949	830.855
14950	798.324
14951	844.922
14952	815.469
14953	822.942
14954	808.435
14955	778.102
14956	819.425
14957	808.435
14958	808.875
14959	832.174
14960	789.971
14961	826.459
14962	801.841
14963	766.672
14964	804.918
14965	808.435
14966	868.661
14967	873.936
14968	837.009
14969	850.637
14970	770.189
14971	811.952
14972	794.368
14973	780.740
14974	783.817
14975	745.132
14976	787.773
14977	778.542
14978	773.706
14979	811.073
14980	787.334
14981	829.976
14982	821.183
14983	794.807
14984	838.328
14985	801.401
14986	813.271
14987	801.401
14988	784.257
14989	850.197
14990	843.603
14991	847.560
14992	838.328
14993	772.827
14994	793.049
14995	766.233
14996	745.571
14997	793.049
14998	794.368
14999	872.178
15000	881.409
15001	851.077
15002	871.738
15003	826.019
15004	837.009
15005	815.469
15006	773.706
15007	818.985
15008	801.401
15009	815.908
15010	808.875
15011	779.421
15012	833.932
15013	833.053
15014	829.976
15015	806.677
15016	745.132
15017	768.431
15018	797.884
15019	824.700
15020	887.564
15021	850.637
15022	848.439
15023	780.300
15024	731.504
15025	771.508
15026	769.750
15027	822.942
15028	837.009
15029	773.706
15030	801.401
15031	780.300
15032	808.875
15033	837.009
15034	819.865
15035	862.946
15036	815.469
15037	794.807
15038	794.368
15039	747.769
15040	782.498
15041	773.266
15042	780.740
15043	840.087
15044	822.502
15045	872.178
15046	855.912
15047	796.566
15048	833.053
15049	801.401
15050	799.203
15051	792.609
15052	756.561
15053	830.855
15054	853.714
15055	829.976
15056	834.811
15057	782.059
15058	794.807
15059	753.484
15060	682.268
15061	681.828
15062	716.997
15063	893.279
15064	1019.885
15065	1012.852
15066	984.277
15067	878.772
15068	844.043
15069	797.005
15070	702.930
15071	715.239
15072	618.525
15073	618.965
15074	679.630
15075	815.908
15076	977.244
15077	943.833
15078	875.255
15079	779.861
15080	731.504
15081	806.677
15082	857.671
15083	942.515
15084	914.819
15085	821.623
15086	841.405
15087	811.952
15088	819.425
15089	779.421
15090	659.409
15091	665.563
15092	712.601
15093	815.908
15094	924.491
15095	868.221
15096	858.110
15097	826.459
15098	745.571
15099	745.132
15100	731.064
15101	837.009
15102	913.940
15103	900.312
15104	893.279
15105	801.401
15106	738.538
15107	715.239
15108	680.070
15109	801.841
15110	896.796
15111	886.245
15112	804.918
15113	646.660
15114	657.650
15115	795.686
15116	957.461
15117	1080.990
15118	1005.378
15119	902.071
15120	773.706
15121	701.171
15122	832.613
15123	882.289
15124	865.144
15125	833.053
15126	762.716
15127	797.884
15128	786.015
15129	759.639
15130	780.300
15131	727.547
15132	761.397
15133	776.344
15134	759.639
15135	814.589
15136	780.300
15137	773.706
15138	765.354
15139	726.668
15140	771.948
15141	769.310
15142	738.538
15143	818.985
15144	854.154
15145	913.940
15146	896.356
15147	844.043
15148	862.946
15149	811.952
15150	837.009
15151	804.478
15152	743.813
15153	766.233
15154	783.817
15155	858.110
15156	903.390
15157	845.801
15158	851.077
15159	779.421
15160	724.470
15161	762.716
15162	776.783
15163	804.478
15164	801.401
15165	875.695
15166	980.760
15167	910.423
15168	865.144
15169	813.271
15170	766.672
15171	794.368
15172	759.199
15173	789.532
15174	784.257
15175	597.864
15176	593.907
15177	723.151
15178	970.649
15179	991.311
15180	872.617
15181	815.469
15182	769.750
15183	830.855
15184	850.197
15185	829.976
15186	857.671
15187	809.314
15188	822.502
15189	826.019
15190	787.773
15191	814.150
15192	783.817
15193	773.706
15194	798.764
15195	775.904
15196	822.502
15197	815.469
15198	815.908
15199	827.778
15200	782.059
15201	806.677
15202	766.672
15203	738.538
15204	824.261
15205	815.469
15206	837.009
15207	720.953
15208	562.695
15209	753.924
15210	920.974
15211	998.784
15212	994.828
15213	900.752
15214	893.279
15215	840.087
15216	787.773
15217	745.132
15218	731.064
15219	749.088
15220	701.611
15221	640.066
15222	780.300
15223	899.873
15224	963.616
15225	849.758
15226	759.639
15227	846.681
15228	872.178
15229	872.617
15230	858.110
15231	800.522
15232	777.662
15233	738.098
15234	749.088
15235	848.439
15236	857.671
15237	893.279
15238	810.633
15239	777.223
15240	836.570
15241	815.469
15242	817.667
15243	785.136
15244	763.156
15245	801.401
15246	759.199
15247	766.672
15248	766.233
15249	742.054
15250	804.918
15251	801.401
15252	794.807
15253	794.807
15254	733.262
15255	664.684
15256	688.862
15257	886.245
15258	1054.614
15259	980.760
15260	893.279
15261	797.005
15262	745.132
15263	808.435
15264	808.435
15265	808.875
15266	801.401
15267	774.585
15268	848.439
15269	855.033
15270	847.560
15271	896.356
15272	848.879
15273	872.178
15274	829.976
15275	630.395
15276	737.219
15277	882.289
15278	978.562
15279	868.221
15280	794.807
15281	787.773
15282	771.068
15283	787.773
15284	750.407
15285	773.706
15286	818.985
15287	787.334
15288	764.914
15289	538.957
15290	655.892
15291	948.669
15292	984.277
15293	928.447
15294	844.483
15295	731.064
15296	737.219
15297	769.750
15298	829.976
15299	878.772
15300	811.952
15301	815.908
15302	794.807
15303	755.682
15304	793.049
15305	745.132
15306	752.605
15307	823.381
15308	852.396
15309	905.588
15310	862.946
15311	829.976
15312	843.603
15313	762.716
15314	810.633
15315	860.748
15316	824.700
15317	841.845
15318	773.266
15319	731.504
15320	760.078
15321	778.102
15322	727.108
15323	618.525
15324	763.156
15325	928.008
15326	899.873
15327	921.414
15328	942.075
15329	861.188
15330	787.334
15331	841.845
15332	900.312
15333	785.575
15334	745.132
15335	837.888
15336	843.603
15337	801.841
15338	811.512
15339	776.783
15340	837.009
15341	848.439
15342	815.908
15343	840.087
15344	794.368
15345	770.189
15346	762.716
15347	770.189
15348	831.294
15349	695.896
15350	759.639
15351	884.047
15352	878.772
15353	759.639
15354	673.036
15355	815.908
15356	928.008
15357	864.704
15358	851.077
15359	803.160
15360	740.296
15361	787.334
15362	780.300
15363	829.976
15364	826.459
15365	752.605
15366	674.355
15367	759.199
15368	903.829
15369	690.621
15370	761.397
15371	998.784
15372	995.707
15373	886.245
15374	829.536
15375	778.542
15376	837.009
15377	811.073
15378	762.716
15379	796.126
15380	759.199
15381	787.773
15382	787.334
15383	766.672
15384	790.851
15385	678.312
15386	705.128
15387	855.033
15388	917.897
15389	920.974
15390	801.401
15391	810.633
15392	775.464
15393	615.448
15394	778.102
15395	857.671
15396	627.757
15397	833.492
15398	977.244
15399	1018.127
15400	913.940
15401	900.312
15402	906.907
15403	815.908
15404	759.639
15405	857.671
15406	900.312
15407	906.907
15408	815.469
15409	773.706
15410	750.407
15411	571.048
15412	706.446
15413	888.004
15414	872.178
15415	885.806
15416	801.401
15417	791.290
15418	720.953
15419	704.248
15420	864.704
15421	794.368
15422	766.672
15423	887.564
15424	861.188
15425	854.594
15426	796.566
15427	731.504
15428	776.783
15429	738.098
15430	654.133
15431	718.755
15432	857.231
15433	949.988
15434	875.255
15435	851.077
15436	656.331
15437	328.825
15438	820.304
15439	1047.580
15440	935.481
15441	857.671
15442	840.087
15443	900.312
15444	869.980
15445	822.942
15446	851.516
15447	759.199
15448	794.807
15449	889.322
15450	769.750
15451	856.352
15452	829.976
15453	787.773
15454	857.671
15455	843.603
15456	858.110
15457	835.690
15458	755.243
15459	810.633
15460	828.657
15461	822.942
15462	815.469
15463	773.266
15464	808.875
15465	797.884
15466	787.773
15467	834.811
15468	808.435
15469	787.773
15470	795.686
15471	772.827
15472	569.289
15473	794.368
15474	1125.391
15475	1061.648
15476	837.449
15477	768.431
15478	727.108
15479	708.644
15480	719.195
15481	700.292
15482	707.765
15483	695.896
15484	810.633
15485	808.875
15486	422.021
15487	681.828
15488	1124.951
15489	1167.593
15490	986.036
15491	824.700
15492	825.580
15493	773.266
15494	821.183
15495	893.279
15496	804.918
15497	516.976
15498	703.809
15499	995.267
15500	1046.701
15501	892.839
15502	833.492
15503	743.813
15504	738.098
15505	808.435
15506	759.199
15507	733.262
15508	734.581
15509	745.132
15510	852.835
15511	818.985
15512	837.009
15513	875.255
15514	785.575
15515	879.211
15516	935.041
15517	875.695
15518	843.603
15519	829.536
15520	865.144
15521	837.009
15522	769.310
15523	790.411
15524	773.266
15525	791.290
15526	786.015
15527	731.064
15528	748.649
15529	692.819
15530	675.234
15531	775.025
15532	688.862
15533	636.549
15534	828.657
15535	877.013
15536	802.720
15537	658.969
15538	787.773
15539	829.536
15540	1012.412
15541	1111.323
15542	981.200
15543	854.594
15544	843.603
15545	787.334
15546	787.773
15547	813.710
15548	804.918
15549	851.516
15550	477.851
15551	365.752
15552	989.552
15553	1237.930
15554	1069.121
15555	894.598
15556	727.987
15557	688.862
15558	762.716
15559	931.964
15560	935.041
15561	789.092
15562	734.581
15563	674.795
15564	706.886
15565	778.542
15566	746.890
15567	815.908
15568	836.570
15569	815.908
15570	871.738
15571	841.845
15572	815.908
15573	799.203
15574	829.976
15575	884.047
15576	836.570
15577	808.875
15578	786.894
15579	668.201
15580	811.512
15581	850.637
15582	847.560
15583	822.502
15584	790.851
15585	851.077
15586	801.401
15587	808.875
15588	752.165
15589	720.953
15590	815.469
15591	815.469
15592	738.538
15593	593.907
15594	813.710
15595	1040.107
15596	878.772
15597	696.335
15598	898.994
15599	952.626
15600	914.380
15601	769.310
15602	471.257
15603	682.268
15604	949.109
15605	1005.818
15606	874.815
15607	747.330
15608	692.379
15609	780.300
15610	907.346
15611	906.907
15612	794.368
15613	727.987
15614	864.704
15615	931.964
15616	864.704
15617	771.508
15618	801.841
15619	812.391
15620	787.773
15621	815.908
15622	787.334
15623	798.324
15624	804.918
15625	783.817
15626	831.734
15627	821.183
15628	803.599
15629	731.064
15630	787.334
15631	910.863
15632	727.987
15633	713.920
15634	815.469
15635	699.413
15636	873.936
15637	968.451
15638	857.231
15639	838.768
15640	815.469
15641	845.801
15642	857.671
15643	794.368
15644	851.077
15645	821.623
15646	738.538
15647	629.076
15648	590.391
15649	833.492
15650	863.825
15651	593.907
15652	583.796
15653	1007.137
15654	1104.290
15655	1000.103
15656	878.772
15657	854.594
15658	822.502
15659	766.672
15660	794.368
15661	702.930
15662	759.639
15663	844.043
15664	808.875
15665	878.772
15666	773.266
15667	787.773
15668	886.685
15669	841.405
15670	824.700
15671	780.300
15672	787.773
15673	815.469
15674	752.165
15675	694.137
15676	822.502
15677	731.504
15678	892.839
15679	899.873
15680	873.936
15681	778.981
15682	611.931
15683	871.738
15684	980.760
15685	907.346
15686	787.773
15687	759.639
15688	892.839
15689	850.637
15690	829.976
15691	772.827
15692	725.349
15693	752.165
15694	724.031
15695	770.629
15696	791.290
15697	733.262
15698	623.801
15699	756.561
15700	851.077
15701	845.362
15702	925.370
15703	808.875
15704	694.137
15705	851.077
15706	896.356
15707	936.800
15708	963.616
15709	846.681
15710	731.504
15711	899.873
15712	857.671
15713	794.807
15714	736.779
15715	735.900
15716	841.845
15717	766.233
15718	759.639
15719	849.758
15720	845.362
15721	724.470
15722	800.522
15723	886.245
15724	913.940
15725	674.795
15726	782.498
15727	945.592
15728	865.584
15729	808.435
15730	716.997
15731	745.571
15732	768.431
15733	770.189
15734	840.087
15735	836.570
15736	858.110
15737	709.963
15738	773.706
15739	920.534
15740	871.738
15741	872.178
15742	920.974
15743	808.435
15744	787.773
15745	752.605
15746	731.504
15747	726.668
15748	701.171
15749	566.212
15750	761.837
15751	946.911
15752	898.115
15753	885.806
15754	953.065
15755	906.027
15756	815.908
15757	815.469
15758	759.199
15759	759.639
15760	797.005
15761	643.143
15762	745.132
15763	857.671
15764	946.031
15765	987.794
15766	857.671
15767	819.425
15768	731.943
15769	662.046
15770	806.677
15771	843.603
15772	773.706
15773	785.136
15774	916.578
15775	921.414
15776	720.514
15777	787.773
15778	864.704
15779	829.976
15780	854.594
15781	632.593
15782	717.437
15783	885.806
15784	818.985
15785	682.268
15786	719.195
15787	754.803
15788	784.257
15789	794.368
15790	866.023
15791	925.810
15792	844.043
15793	898.115
15794	562.256
15795	618.965
15796	1044.064
15797	1029.557
15798	930.206
15799	899.873
15800	907.346
15801	891.081
15802	847.120
15803	858.110
15804	805.358
15805	703.369
15806	808.435
15807	808.435
15808	837.009
15809	761.397
15810	681.389
15811	745.132
15812	613.250
15813	583.796
15814	790.851
15815	843.603
15816	875.695
15817	835.690
15818	767.552
15819	877.013
15820	844.483
15821	826.459
15822	871.738
15823	844.483
15824	852.396
15825	787.334
15826	794.807
15827	818.985
15828	706.446
15829	742.054
15830	954.824
15831	916.138
15832	875.255
15833	801.401
15834	808.875
15835	787.773
15836	629.515
15837	639.626
15838	889.322
15839	956.582
15840	884.047
15841	790.851
15842	743.813
15843	667.761
15844	900.312
15845	922.293
15846	805.358
15847	813.710
15848	773.266
15849	808.875
15850	865.144
15851	791.290
15852	794.368
15853	780.300
15854	773.706
15855	773.266
15856	824.700
15857	893.279
15858	845.362
15859	717.876
15860	625.559
15861	890.202
15862	991.750
15863	913.501
15864	793.928
15865	812.391
15866	738.098
15867	703.369
15868	847.120
15869	831.294
15870	829.976
15871	804.918
15872	775.464
15873	822.502
15874	787.334
15875	805.358
15876	806.237
15877	779.421
15878	829.976
15879	828.217
15880	805.358
15881	832.174
15882	818.985
15883	837.009
15884	727.987
15885	717.437
15886	843.603
15887	850.637
15888	844.043
15889	826.898
15890	762.716
15891	773.706
15892	752.165
15893	822.942
15894	812.391
15895	773.706
15896	801.401
15897	794.368
15898	847.560
15899	844.043
15900	800.522
15901	862.067
15902	843.603
15903	826.459
15904	826.019
15905	792.609
15906	844.043
15907	831.294
15908	794.807
15909	815.469
15910	794.368
15911	822.942
15912	837.009
15913	802.720
15914	875.255
15915	843.603
15916	794.807
15917	769.750
15918	727.547
15919	765.793
15920	752.605
15921	731.504
15922	797.884
15923	787.334
15924	815.908
15925	836.570
15926	820.304
15927	873.936
15928	847.120
15929	829.976
15930	850.637
15931	808.435
15932	837.009
15933	814.589
15934	768.431
15935	826.019
15936	801.401
15937	810.633
15938	796.126
15939	759.639
15940	801.401
15941	787.334
15942	801.841
15943	836.570
15944	811.952
15945	844.043
15946	820.304
15947	791.290
15948	833.053
15949	806.677
15950	826.459
15951	830.415
15952	804.478
15953	857.671
15954	836.570
15955	811.952
15956	824.261
15957	787.334
15958	824.700
15959	812.391
15960	773.706
15961	802.280
15962	769.750
15963	795.247
15964	799.203
15965	773.706
15966	822.502
15967	804.918
15968	819.425
15969	828.657
15970	797.005
15971	844.043
15972	826.019
15973	801.841
15974	822.502
15975	787.334
15976	819.425
15977	814.150
15978	788.213
15979	829.536
15980	801.401
15981	808.875
15982	811.952
15983	770.629
15984	821.183
15985	815.469
15986	798.324
15987	824.261
15988	787.334
15989	817.667
15990	810.633
15991	782.498
15992	829.536
15993	808.435
15994	801.841
15995	805.797
15996	788.213
15997	829.536
15998	794.368
15999	808.875
16000	804.478
16001	794.368
16002	862.506
16003	829.976
16004	815.908
16005	826.898
16006	794.368
16007	830.855
16008	811.512
16009	780.740
16010	822.502
16011	801.401
16012	815.908
16013	813.710
16014	797.005
16015	848.879
16016	822.502
16017	812.391
16018	818.985
16019	778.542
16020	822.942
16021	815.469
16022	791.290
16023	822.063
16024	780.300
16025	819.425
16026	828.217
16027	809.314
16028	840.966
16029	787.334
16030	815.908
16031	827.778
16032	782.059
16033	814.150
16034	793.488
16035	780.740
16036	811.952
16037	780.300
16038	808.875
16039	805.797
16040	775.464
16041	829.536
16042	801.401
16043	815.908
16044	826.019
16045	793.049
16046	845.801
16047	833.053
16048	808.875
16049	824.261
16050	787.334
16051	815.908
16052	808.435
16053	777.223
16054	809.314
16055	799.643
16056	819.425
16057	836.570
16058	796.126
16059	837.009
16060	813.271
16061	787.773
16062	822.502
16063	808.875
16064	844.043
16065	828.217
16066	794.807
16067	841.845
16068	801.401
16069	801.841
16070	820.744
16071	793.049
16072	837.449
16073	811.073
16074	789.532
16075	816.348
16076	794.368
16077	837.888
16078	815.908
16079	787.773
16080	815.469
16081	783.817
16082	815.908
16083	802.280
16084	753.924
16085	833.053
16086	829.536
16087	808.875
16088	815.469
16089	784.257
16090	829.976
16091	815.469
16092	777.223
16093	814.589
16094	787.334
16095	821.183
16096	818.106
16097	775.025
16098	822.502
16099	833.492
16100	788.653
16101	803.599
16102	811.952
16103	787.773
16104	810.193
16105	820.744
16106	829.976
16107	801.401
16108	832.613
16109	810.633
16110	847.560
16111	863.386
16112	808.875
16113	831.294
16114	797.884
16115	824.700
16116	818.106
16117	824.261
16118	798.324
16119	797.884
16120	804.918
16121	762.716
16122	810.633
16123	801.401
16124	805.358
16125	783.817
16126	811.073
16127	812.391
16128	778.542
16129	829.976
16130	844.483
16131	809.754
16132	826.898
16133	829.536
16134	808.875
16135	797.884
16136	810.193
16137	768.870
16138	829.976
16139	801.401
16140	829.976
16141	787.773
16142	818.985
16143	827.778
16144	801.841
16145	801.401
16146	820.744
16147	816.787
16148	799.643
16149	820.744
16150	829.976
16151	801.401
16152	829.976
16153	791.290
16154	826.459
16155	783.817
16156	830.855
16157	805.358
16158	814.589
16159	814.150
16160	815.908
16161	843.603
16162	854.594
16163	822.502
16164	791.290
16165	762.716
16166	806.677
16167	805.358
16168	808.435
16169	812.831
16170	819.425
16171	787.334
16172	822.063
16173	787.773
16174	811.952
16175	827.778
16176	815.908
16177	807.116
16178	777.662
16179	818.985
16180	787.334
16181	803.160
16182	815.908
16183	789.971
16184	833.932
16185	847.120
16186	829.976
16187	815.029
16188	829.536
16189	837.009
16190	801.401
16191	826.459
16192	824.261
16193	801.841
16194	833.053
16195	840.087
16196	819.425
16197	801.401
16198	818.985
16199	787.773
16200	813.710
16201	822.942
16202	776.783
16203	801.841
16204	815.908
16205	787.773
16206	794.368
16207	811.952
16208	812.391
16209	784.257
16210	812.391
16211	832.174
16212	790.851
16213	817.227
16214	832.613
16215	795.247
16216	828.217
16217	840.526
16218	796.566
16219	825.580
16220	819.425
16221	762.716
16222	817.667
16223	804.918
16224	810.633
16225	801.401
16226	832.613
16227	837.009
16228	804.918
16229	820.304
16230	842.285
16231	808.875
16232	827.778
16233	821.623
16234	829.976
16235	788.213
16236	810.633
16237	833.053
16238	801.841
16239	822.502
16240	822.502
16241	794.807
16242	811.952
16243	829.536
16244	787.773
16245	801.401
16246	766.233
16247	808.435
16248	768.870
16249	801.401
16250	821.183
16251	808.875
16252	844.483
16253	855.033
16254	770.189
16255	815.908
16256	857.671
16257	823.821
16258	826.019
16259	815.469
16260	801.841
16261	773.266
16262	799.643
16263	773.266
16264	815.469
16265	808.875
16266	792.609
16267	833.492
16268	857.231
16269	829.976
16270	815.469
16271	824.261
16272	787.773
16273	809.314
16274	813.710
16275	794.807
16276	786.015
16277	814.150
16278	829.976
16279	789.971
16280	811.952
16281	829.976
16282	765.354
16283	821.623
16284	794.368
16285	842.285
16286	822.502
16287	818.985
16288	822.502
16289	836.570
16290	808.875
16291	815.469
16292	836.570
16293	787.773
16294	822.502
16295	794.368
16296	829.976
16297	782.498
16298	804.478
16299	808.875
16300	783.817
16301	815.908
16302	752.165
16303	815.908
16304	794.368
16305	807.556
16306	829.976
16307	807.556
16308	846.681
16309	819.425
16310	833.053
16311	789.971
16312	829.536
16313	801.841
16314	804.918
16315	815.469
16316	837.009
16317	833.932
16318	794.807
16319	822.502
16320	773.266
16321	807.556
16322	826.019
16323	794.807
16324	801.401
16325	815.908
16326	818.106
16327	801.841
16328	815.908
16329	819.425
16330	782.938
16331	815.469
16332	826.019
16333	819.425
16334	790.851
16335	818.985
16336	838.768
16337	818.985
16338	815.908
16339	798.324
16340	787.773
16341	808.435
16342	831.294
16343	844.043
16344	830.415
16345	822.502
16346	815.908
16347	799.643
16348	822.063
16349	777.662
16350	811.952
16351	785.575
16352	830.415
16353	801.841
16354	808.435
16355	810.193
16356	808.875
16357	810.633
16358	787.773
16359	822.502
16360	796.566
16361	814.589
16362	822.942
16363	806.677
16364	815.908
16365	800.962
16366	840.526
16367	808.875
16368	818.985
16369	837.009
16370	773.266
16371	812.391
16372	801.401
16373	825.580
16374	822.942
16375	792.609
16376	818.546
16377	798.324
16378	818.985
16379	781.179
16380	829.536
16381	815.908
16382	801.401
16383	814.150
16384	819.425
16385	787.334
16386	816.348
16387	821.183
16388	798.324
16389	834.811
16390	804.918
16391	815.469
16392	797.884
16393	843.603
16394	851.956
16395	800.082
16396	811.073
16397	824.700
16398	797.884
16399	815.908
16400	814.150
16401	787.773
16402	811.952
16403	773.266
16404	821.183
16405	808.875
16406	829.536
16407	815.908
16408	792.169
16409	813.271
16410	826.459
16411	789.532
16412	801.401
16413	816.348
16414	833.492
16415	810.193
16416	839.647
16417	823.821
16418	820.304
16419	793.049
16420	824.261
16421	821.183
16422	797.884
16423	800.962
16424	815.029
16425	787.334
16426	812.391
16427	815.469
16428	819.425
16429	794.368
16430	808.435
16431	818.985
16432	787.773
16433	804.918
16434	764.474
16435	812.391
16436	785.575
16437	815.469
16438	817.227
16439	804.918
16440	835.251
16441	815.908
16442	826.019
16443	794.368
16444	840.087
16445	829.976
16446	815.469
16447	831.294
16448	819.425
16449	815.469
16450	787.773
16451	818.985
16452	844.043
16453	808.435
16454	759.639
16455	815.469
16456	780.300
16457	805.358
16458	819.425
16459	764.914
16460	794.368
16461	825.580
16462	833.492
16463	815.469
16464	840.087
16465	794.807
16466	833.053
16467	785.575
16468	819.425
16469	787.773
16470	801.401
16471	819.425
16472	798.324
16473	815.469
16474	788.653
16475	846.681
16476	815.469
16477	829.976
16478	845.362
16479	794.807
16480	822.502
16481	833.053
16482	808.875
16483	794.368
16484	799.643
16485	824.700
16486	795.247
16487	825.140
16488	818.985
16489	787.773
16490	794.368
16491	815.469
16492	815.908
16493	812.391
16494	787.773
16495	815.908
16496	792.169
16497	831.294
16498	840.087
16499	798.324
16500	822.063
16501	822.942
16502	804.918
16503	775.025
16504	808.435
16505	780.740
16506	836.570
16507	765.354
16508	826.019
16509	822.942
16510	811.952
16511	818.985
16512	815.908
16513	822.502
16514	801.841
16515	833.053
16516	790.851
16517	817.667
16518	824.700
16519	787.773
16520	824.261
16521	815.908
16522	809.754
16523	773.706
16524	811.952
16525	822.942
16526	796.566
16527	826.459
16528	829.976
16529	815.469
16530	787.773
16531	826.019
16532	794.368
16533	818.106
16534	796.566
16535	815.469
16536	822.502
16537	771.508
16538	818.985
16539	783.817
16540	822.942
16541	804.918
16542	839.207
16543	829.976
16544	799.643
16545	844.043
16546	827.778
16547	801.841
16548	804.918
16549	810.633
16550	787.334
16551	815.029
16552	822.942
16553	811.952
16554	794.807
16555	810.193
16556	798.324
16557	840.087
16558	847.999
16559	801.841
16560	815.469
16561	817.667
16562	812.391
16563	832.174
16564	795.686
16565	822.502
16566	783.817
16567	826.459
16568	801.401
16569	814.589
16570	803.599
16571	801.401
16572	820.744
16573	777.662
16574	822.502
16575	783.817
16576	810.633
16577	783.817
16578	815.469
16579	836.570
16580	808.875
16581	826.898
16582	793.049
16583	841.845
16584	808.435
16585	829.976
16586	844.043
16587	798.324
16588	815.469
16589	828.657
16590	795.686
16591	794.368
16592	811.952
16593	780.740
16594	829.536
16595	787.334
16596	817.667
16597	774.585
16598	801.401
16599	801.401
16600	821.183
16601	798.324
16602	822.502
16603	829.536
16604	829.976
16605	803.599
16606	826.459
16607	818.546
16608	787.773
16609	815.908
16610	795.686
16611	840.087
16612	794.368
16613	806.677
16614	834.811
16615	808.875
16616	823.381
16617	791.290
16618	804.039
16619	783.817
16620	818.985
16621	794.807
16622	808.435
16623	840.087
16624	851.077
16625	838.328
16626	815.908
16627	833.053
16628	798.324
16629	819.425
16630	818.985
16631	787.773
16632	787.334
16633	801.841
16634	790.411
16635	766.672
16636	787.334
16637	808.875
16638	771.948
16639	800.082
16640	805.797
16641	787.334
16642	812.391
16643	815.908
16644	815.908
16645	829.536
16646	845.362
16647	858.110
16648	850.637
16649	883.168
16650	843.603
16651	837.009
16652	821.183
16653	820.744
16654	787.773
16655	817.227
16656	818.985
16657	763.595
16658	806.237
16659	780.300
16660	808.875
16661	778.981
16662	801.841
16663	815.469
16664	787.334
16665	817.227
16666	808.875
16667	816.348
16668	781.179
16669	819.425
16670	829.976
16671	823.381
16672	838.328
16673	793.488
16674	837.449
16675	794.368
16676	817.667
16677	815.469
16678	843.603
16679	844.483
16680	811.952
16681	842.724
16682	801.401
16683	801.841
16684	806.237
16685	817.667
16686	782.059
16687	815.469
16688	780.300
16689	802.720
16690	815.908
16691	780.300
16692	815.908
16693	801.841
16694	831.294
16695	790.851
16696	844.043
16697	833.492
16698	836.570
16699	829.536
16700	801.841
16701	796.566
16702	766.672
16703	800.522
16704	776.783
16705	804.918
16706	821.623
16707	787.773
16708	829.096
16709	815.908
16710	822.502
16711	787.773
16712	815.908
16713	836.570
16714	794.807
16715	822.502
16716	841.845
16717	794.368
16718	831.734
16719	794.368
16720	808.875
16721	801.841
16722	787.773
16723	813.710
16724	787.773
16725	824.700
16726	839.207
16727	808.875
16728	834.811
16729	858.110
16730	851.077
16731	815.469
16732	807.556
16733	754.363
16734	794.368
16735	773.266
16736	810.633
16737	766.672
16738	797.884
16739	807.556
16740	812.391
16741	797.884
16742	827.338
16743	850.197
16744	815.908
16745	829.536
16746	844.043
16747	816.787
16748	801.401
16749	829.536
16750	808.435
16751	815.908
16752	800.962
16753	822.502
16754	801.841
16755	787.334
16756	805.797
16757	775.464
16758	813.710
16759	776.783
16760	832.613
16761	808.875
16762	829.096
16763	820.744
16764	838.768
16765	793.488
16766	819.425
16767	830.855
16768	801.841
16769	804.918
16770	825.140
16771	840.526
16772	808.875
16773	827.778
16774	824.261
16775	822.942
16776	781.619
16777	808.435
16778	805.358
16779	787.334
16780	766.233
16781	808.875
16782	829.976
16783	794.807
16784	811.952
16785	812.391
16786	800.962
16787	787.773
16788	812.391
16789	836.130
16790	796.566
16791	824.261
16792	829.536
16793	829.976
16794	794.368
16795	815.469
16796	829.976
16797	801.841
16798	837.009
16799	838.328
16800	829.976
16801	848.879
16802	810.633
16803	842.285
16804	794.368
16805	818.985
16806	819.425
16807	773.266
16808	787.773
16809	787.773
16810	804.918
16811	781.619
16812	824.700
16813	818.985
16814	809.314
16815	838.768
16816	835.690
16817	850.637
16818	817.667
16819	783.377
16820	766.672
16821	776.783
16822	759.639
16823	810.193
16824	787.334
16825	833.492
16826	822.502
16827	815.908
16828	844.043
16829	844.043
16830	844.043
16831	810.633
16832	848.879
16833	801.401
16834	823.821
16835	801.401
16836	808.875
16837	843.603
16838	802.280
16839	822.502
16840	769.750
16841	798.324
16842	800.082
16843	787.773
16844	813.710
16845	771.948
16846	798.764
16847	780.300
16848	798.324
16849	839.207
16850	787.773
16851	806.677
16852	780.300
16853	821.183
16854	843.603
16855	858.110
16856	895.037
16857	822.502
16858	838.768
16859	804.918
16860	794.807
16861	808.875
16862	787.773
16863	815.469
16864	787.334
16865	844.043
16866	847.120
16867	819.425
16868	815.469
16869	768.870
16870	834.811
16871	857.671
16872	837.009
16873	792.169
16874	748.209
16875	801.401
16876	759.199
16877	787.773
16878	782.498
16879	759.639
16880	801.401
16881	759.199
16882	815.908
16883	815.469
16884	801.841
16885	843.603
16886	799.643
16887	818.985
16888	822.502
16889	819.425
16890	810.193
16891	778.542
16892	843.603
16893	815.469
16894	822.942
16895	818.985
16896	793.049
16897	850.637
16898	826.019
16899	858.110
16900	844.043
16901	801.841
16902	822.502
16903	778.542
16904	844.043
16905	873.936
16906	872.178
16907	829.536
16908	734.581
16909	760.958
16910	757.441
16911	766.672
16912	780.740
16913	748.649
16914	804.478
16915	815.469
16916	854.594
16917	878.772
16918	900.312
16919	834.811
16920	745.132
16921	773.266
16922	766.233
16923	808.875
16924	800.522
16925	775.464
16926	822.502
16927	850.637
16928	822.942
16929	766.672
16930	732.823
16931	787.334
16932	778.542
16933	844.922
16934	841.845
16935	829.976
16936	843.603
16937	801.401
16938	882.728
16939	868.221
16940	844.043
16941	830.415
16942	803.160
16943	883.607
16944	884.047
16945	819.425
16946	780.300
16947	739.417
16948	787.334
16949	759.199
16950	766.672
16951	804.918
16952	824.700
16953	826.459
16954	716.997
16955	717.437
16956	755.243
16957	777.223
16958	919.216
16959	892.839
16960	865.144
16961	735.460
16962	657.650
16963	724.031
16964	731.064
16965	822.942
16966	862.067
16967	865.144
16968	899.873
16969	905.148
16970	942.515
16971	829.976
16972	794.807
16973	787.334
16974	718.755
16975	780.740
16976	787.334
16977	826.459
16978	865.144
16979	829.976
16980	857.671
16981	889.322
16982	900.312
16983	831.294
16984	771.948
16985	807.995
16986	783.377
16987	787.773
16988	788.213
16989	747.330
16990	793.488
16991	773.266
16992	854.594
16993	933.283
16994	845.362
16995	850.637
16996	836.570
16997	868.661
16998	809.314
16999	717.437
17000	720.514
17001	692.379
17002	731.504
17003	703.369
17004	668.201
17005	745.132
17006	745.132
17007	815.908
17008	866.902
17009	900.312
17010	970.210
17011	885.806
17012	861.188
17013	821.183
17014	777.223
17015	815.469
17016	776.783
17017	793.049
17018	795.247
17019	773.706
17020	815.469
17021	780.740
17022	935.041
17023	1012.412
17024	879.211
17025	767.552
17026	689.302
17027	752.165
17028	759.199
17029	787.773
17030	785.136
17031	759.639
17032	826.898
17033	776.783
17034	801.841
17035	813.710
17036	788.653
17037	863.825
17038	885.806
17039	847.560
17040	787.773
17041	746.451
17042	824.700
17043	836.570
17044	844.043
17045	788.653
17046	759.199
17047	861.188
17048	871.738
17049	808.875
17050	780.740
17051	752.605
17052	815.469
17053	801.401
17054	829.976
17055	821.183
17056	787.773
17057	827.778
17058	899.873
17059	879.211
17060	792.609
17061	724.470
17062	780.300
17063	787.334
17064	812.391
17065	798.324
17066	756.122
17067	800.962
17068	773.266
17069	773.706
17070	780.300
17071	849.318
17072	883.168
17073	808.435
17074	798.324
17075	810.193
17076	799.643
17077	930.645
17078	1040.547
17079	858.110
17080	693.258
17081	634.791
17082	738.098
17083	752.165
17084	773.706
17085	745.571
17086	734.581
17087	906.027
17088	892.839
17089	794.807
17090	755.682
17091	742.494
17092	838.768
17093	882.289
17094	921.414
17095	913.940
17096	807.556
17097	987.794
17098	822.502
17099	696.335
17100	684.026
17101	685.785
17102	764.474
17103	781.179
17104	882.728
17105	858.110
17106	766.672
17107	787.334
17108	773.266
17109	844.043
17110	921.414
17111	902.071
17112	888.004
17113	810.193
17114	798.324
17115	822.063
17116	844.043
17117	815.469
17118	713.480
17119	706.886
17120	710.403
17121	718.755
17122	759.639
17123	764.914
17124	875.255
17125	808.435
17126	808.875
17127	834.811
17128	831.294
17129	883.168
17130	787.334
17131	759.639
17132	809.314
17133	793.049
17134	882.728
17135	989.552
17136	1033.953
17137	1018.127
17138	899.873
17139	743.813
17140	597.424
17141	583.796
17142	653.694
17143	701.171
17144	780.740
17145	804.039
17146	812.391
17147	847.120
17148	873.497
17149	989.992
17150	931.525
17151	731.504
17152	716.557
17153	702.050
17154	773.706
17155	766.672
17156	872.178
17157	847.120
17158	762.716
17159	821.183
17160	841.845
17161	858.110
17162	866.463
17163	787.334
17164	808.875
17165	798.764
17166	837.009
17167	956.142
17168	966.693
17169	984.717
17170	735.021
17171	618.965
17172	666.003
17173	674.795
17174	752.605
17175	770.629
17176	777.223
17177	866.463
17178	843.603
17179	886.245
17180	808.875
17181	731.504
17182	783.817
17183	716.997
17184	724.470
17185	744.692
17186	770.189
17187	867.782
17188	871.738
17189	900.312
17190	912.182
17191	882.728
17192	910.423
17193	857.671
17194	844.043
17195	817.227
17196	773.266
17197	1020.325
17198	1233.534
17199	900.312
17200	618.086
17201	487.523
17202	575.883
17203	643.583
17204	703.369
17205	747.330
17206	727.547
17207	845.801
17208	868.221
17209	822.942
17210	874.376
17211	899.873
17212	970.649
17213	1032.194
17214	866.023
17215	787.334
17216	822.502
17217	780.740
17218	699.852
17219	752.605
17220	944.273
17221	745.132
17222	634.791
17223	611.492
17224	678.751
17225	769.750
17226	788.213
17227	836.130
17228	787.334
17229	801.841
17230	861.188
17231	929.766
17232	933.723
17233	843.603
17234	808.875
17235	731.064
17236	709.963
17237	815.908
17238	906.907
17239	787.773
17240	748.649
17241	745.132
17242	861.627
17243	895.037
17244	868.661
17245	970.210
17246	892.839
17247	886.245
17248	865.144
17249	814.150
17250	1121.874
17251	998.345
17252	703.369
17253	562.256
17254	533.681
17255	669.080
17256	692.379
17257	682.268
17258	719.635
17259	738.098
17260	822.942
17261	991.750
17262	980.760
17263	979.002
17264	801.401
17265	761.397
17266	730.625
17267	745.571
17268	811.952
17269	731.064
17270	742.054
17271	752.605
17272	805.358
17273	885.806
17274	794.368
17275	847.560
17276	860.308
17277	761.397
17278	829.096
17279	864.704
17280	916.138
17281	863.386
17282	731.504
17283	772.827
17284	787.334
17285	815.908
17286	923.612
17287	913.940
17288	1037.469
17289	885.806
17290	597.864
17291	535.879
17292	593.907
17293	752.605
17294	825.580
17295	817.667
17296	910.423
17297	871.738
17298	833.492
17299	803.599
17300	912.621
17301	895.477
17302	822.502
17303	773.706
17304	808.875
17305	979.002
17306	1014.170
17307	783.817
17308	629.515
17309	624.680
17310	630.395
17311	738.098
17312	766.233
17313	731.504
17314	783.817
17315	813.710
17316	872.178
17317	862.946
17318	865.144
17319	970.210
17320	913.940
17321	872.178
17322	938.119
17323	1019.885
17324	1139.018
17325	688.862
17326	518.735
17327	513.020
17328	618.965
17329	745.571
17330	722.272
17331	787.773
17332	787.334
17333	798.324
17334	910.423
17335	959.659
17336	907.346
17337	803.160
17338	706.886
17339	741.615
17340	731.064
17341	805.358
17342	835.251
17343	821.183
17344	892.400
17345	895.477
17346	879.211
17347	906.907
17348	749.088
17349	750.407
17350	766.233
17351	798.324
17352	862.946
17353	815.469
17354	893.279
17355	1040.547
17356	921.414
17357	727.547
17358	593.907
17359	664.684
17360	704.688
17361	754.363
17362	899.873
17363	871.738
17364	747.330
17365	798.324
17366	886.245
17367	829.536
17368	724.031
17369	749.088
17370	743.813
17371	745.571
17372	822.502
17373	801.401
17374	861.627
17375	916.578
17376	886.685
17377	894.158
17378	815.469
17379	834.811
17380	956.142
17381	801.401
17382	762.276
17383	829.536
17384	731.504
17385	690.621
17386	669.080
17387	738.538
17388	766.672
17389	803.599
17390	873.497
17391	787.334
17392	780.740
17393	818.546
17394	881.409
17395	910.423
17396	843.603
17397	872.178
17398	861.188
17399	816.348
17400	873.057
17401	773.266
17402	717.437
17403	765.354
17404	763.156
17405	829.976
17406	843.603
17407	815.908
17408	812.831
17409	775.025
17410	815.908
17411	821.183
17412	820.744
17413	875.255
17414	877.013
17415	903.829
17416	977.683
17417	844.043
17418	715.239
17419	757.441
17420	736.779
17421	583.796
17422	569.729
17423	723.151
17424	783.817
17425	865.144
17426	893.279
17427	844.043
17428	865.144
17429	818.546
17430	882.728
17431	877.893
17432	900.312
17433	882.289
17434	797.884
17435	837.009
17436	836.570
17437	787.773
17438	800.962
17439	769.750
17440	798.324
17441	856.792
17442	819.865
17443	993.069
17444	899.873
17445	726.229
17446	703.369
17447	731.064
17448	909.105
17449	793.488
17450	675.234
17451	752.165
17452	727.547
17453	689.302
17454	661.167
17455	675.234
17456	847.120
17457	899.873
17458	963.616
17459	855.912
17460	728.427
17461	808.875
17462	839.207
17463	844.043
17464	861.188
17465	794.368
17466	872.178
17467	1031.755
17468	960.099
17469	748.649
17470	657.211
17471	1069.121
17472	1020.764
17473	678.751
17474	590.391
17475	576.323
17476	675.234
17477	727.987
17478	739.417
17479	808.875
17480	797.884
17481	815.908
17482	847.120
17483	818.985
17484	947.790
17485	959.659
17486	837.009
17487	811.952
17488	759.199
17489	791.290
17490	798.764
17491	755.243
17492	776.344
17493	801.401
17494	872.178
17495	862.506
17496	864.704
17497	874.815
17498	815.469
17499	844.043
17500	868.221
17501	720.514
17502	778.981
17503	921.414
17504	879.211
17505	850.637
17506	755.682
17507	759.639
17508	752.605
17509	731.504
17510	850.637
17511	952.626
17512	905.588
17513	668.201
17514	585.115
17515	696.335
17516	759.199
17517	886.245
17518	941.196
17519	801.401
17520	792.609
17521	794.807
17522	800.082
17523	818.985
17524	743.373
17525	752.605
17526	780.300
17527	780.740
17528	865.144
17529	854.154
17530	815.908
17531	840.087
17532	872.178
17533	863.825
17534	801.401
17535	858.110
17536	841.845
17537	775.025
17538	866.902
17539	952.626
17540	984.717
17541	822.502
17542	615.008
17543	584.676
17544	650.177
17545	710.403
17546	801.401
17547	783.817
17548	829.976
17549	840.087
17550	898.115
17551	872.178
17552	800.522
17553	787.773
17554	837.009
17555	822.502
17556	854.594
17557	844.922
17558	819.425
17559	857.671
17560	822.502
17561	829.976
17562	836.570
17563	795.686
17564	849.758
17565	794.368
17566	787.773
17567	790.851
17568	762.716
17569	796.566
17570	773.266
17571	773.706
17572	822.502
17573	776.783
17574	796.566
17575	800.082
17576	793.049
17577	857.671
17578	842.285
17579	854.594
17580	867.342
17581	813.710
17582	840.087
17583	807.556
17584	798.324
17585	815.469
17586	759.199
17587	778.981
17588	769.750
17589	761.397
17590	834.811
17591	808.435
17592	794.807
17593	793.049
17594	791.290
17595	851.077
17596	827.778
17597	829.976
17598	829.536
17599	802.720
17600	858.550
17601	801.401
17602	787.773
17603	797.884
17604	781.179
17605	879.211
17606	913.940
17607	829.976
17608	797.884
17609	748.649
17610	788.653
17611	788.213
17612	773.706
17613	836.570
17614	797.884
17615	858.110
17616	813.271
17617	738.538
17618	789.532
17619	787.334
17620	808.875
17621	804.918
17622	766.233
17623	807.116
17624	797.884
17625	794.807
17626	827.778
17627	801.401
17628	844.043
17629	844.043
17630	815.908
17631	836.570
17632	797.884
17633	840.526
17634	827.778
17635	822.942
17636	875.255
17637	843.603
17638	837.009
17639	771.068
17640	724.470
17641	759.199
17642	752.165
17643	798.324
17644	804.918
17645	787.773
17646	843.603
17647	822.502
17648	822.942
17649	829.536
17650	796.126
17651	845.801
17652	828.657
17653	793.049
17654	822.502
17655	787.334
17656	829.976
17657	823.821
17658	787.773
17659	822.502
17660	794.368
17661	808.875
17662	817.227
17663	794.368
17664	845.362
17665	815.469
17666	819.425
17667	826.019
17668	786.455
17669	826.459
17670	811.952
17671	791.290
17672	822.942
17673	794.368
17674	829.976
17675	828.217
17676	794.807
17677	854.154
17678	815.469
17679	801.841
17680	808.435
17681	775.025
17682	829.976
17683	815.469
17684	801.841
17685	814.589
17686	776.783
17687	810.633
17688	804.918
17689	787.773
17690	815.469
17691	783.817
17692	817.667
17693	817.227
17694	791.290
17695	836.570
17696	808.435
17697	819.425
17698	814.150
17699	776.344
17700	826.459
17701	808.435
17702	801.841
17703	815.469
17704	786.015
17705	838.328
17706	815.469
17707	805.358
17708	822.502
17709	787.334
17710	831.734
17711	822.942
17712	794.807
17713	829.976
17714	801.401
17715	826.459
17716	820.304
17717	787.773
17718	834.811
17719	811.952
17720	815.908
17721	837.009
17722	795.247
17723	829.976
17724	801.401
17725	794.807
17726	813.710
17727	780.300
17728	819.425
17729	810.193
17730	787.773
17731	828.217
17732	794.368
17733	815.908
17734	810.193
17735	759.639
17736	808.435
17737	785.575
17738	812.391
17739	801.841
17740	777.223
17741	826.019
17742	815.469
17743	851.077
17744	856.792
17745	812.391
17746	849.318
17747	824.261
17748	815.908
17749	852.396
17750	811.952
17751	833.492
17752	803.599
17753	773.706
17754	798.324
17755	759.199
17756	780.740
17757	773.706
17758	752.605
17759	811.952
17760	801.401
17761	822.942
17762	843.603
17763	826.898
17764	854.594
17765	815.469
17766	787.773
17767	797.884
17768	766.233
17769	815.908
17770	808.875
17771	791.290
17772	831.294
17773	801.401
17774	833.492
17775	827.338
17776	793.049
17777	842.724
17778	811.952
17779	815.908
17780	829.976
17781	796.126
17782	838.768
17783	820.744
17784	794.807
17785	815.469
17786	784.257
17787	808.875
17788	809.754
17789	780.740
17790	822.502
17791	787.334
17792	815.908
17793	816.348
17794	782.938
17795	829.976
17796	807.116
17797	794.807
17798	822.502
17799	792.609
17800	833.492
17801	820.304
17802	787.773
17803	833.053
17804	801.401
17805	822.942
17806	822.502
17807	787.773
17808	837.009
17809	815.469
17810	796.566
17811	828.217
17812	794.368
17813	831.734
17814	820.744
17815	789.532
17816	822.502
17817	783.817
17818	798.324
17819	799.643
17820	769.310
17821	822.942
17822	810.193
17823	815.908
17824	833.053
17825	792.609
17826	829.976
17827	817.227
17828	791.290
17829	820.744
17830	794.368
17831	829.976
17832	826.019
17833	792.609
17834	843.603
17835	820.744
17836	815.908
17837	832.613
17838	787.773
17839	850.637
17840	811.952
17841	808.875
17842	787.773
17843	746.011
17844	807.556
17845	794.368
17846	801.841
17847	801.401
17848	766.233
17849	815.908
17850	806.677
17851	789.532
17852	839.647
17853	808.435
17854	808.435
17855	812.391
17856	780.300
17857	826.459
17858	808.435
17859	789.532
17860	840.087
17861	813.710
17862	837.009
17863	816.787
17864	787.773
17865	822.502
17866	787.334
17867	815.908
17868	813.271
17869	782.498
17870	832.613
17871	808.435
17872	808.875
17873	824.261
17874	797.884
17875	847.560
17876	831.734
17877	798.764
17878	834.811
17879	801.401
17880	808.875
17881	834.811
17882	797.884
17883	822.942
17884	798.764
17885	777.223
17886	826.019
17887	794.368
17888	815.908
17889	819.865
17890	794.368
17891	840.526
17892	815.469
17893	805.358
17894	820.744
17895	787.334
17896	829.976
17897	817.667
17898	787.773
17899	822.502
17900	794.368
17901	815.908
17902	813.710
17903	786.015
17904	833.053
17905	808.435
17906	801.841
17907	813.710
17908	783.817
17909	829.976
17910	815.469
17911	787.773
17912	824.261
17913	797.884
17914	822.942
17915	818.106
17916	782.498
17917	840.087
17918	815.469
17919	791.290
17920	801.401
17921	773.266
17922	808.875
17923	807.556
17924	794.807
17925	841.845
17926	808.875
17927	829.976
17928	824.261
17929	801.401
17930	843.603
17931	815.469
17932	808.875
17933	815.469
17934	779.421
17935	820.304
17936	819.425
17937	794.807
17938	822.502
17939	780.300
17940	801.841
17941	795.247
17942	798.324
17943	825.140
17944	794.368
17945	836.570
17946	825.140
17947	793.049
17948	822.502
17949	783.817
17950	808.875
17951	805.797
17952	778.542
17953	844.043
17954	826.019
17955	805.358
17956	811.073
17957	776.783
17958	815.908
17959	801.401
17960	777.223
17961	819.425
17962	787.334
17963	804.918
17964	817.667
17965	791.290
17966	840.087
17967	813.710
17968	815.908
17969	818.985
17970	789.092
17971	836.570
17972	822.502
17973	803.599
17974	831.294
17975	799.643
17976	837.009
17977	822.063
17978	794.807
17979	829.976
17980	801.401
17981	815.908
17982	818.985
17983	786.455
17984	829.976
17985	817.227
17986	787.773
17987	822.502
17988	790.851
17989	819.425
17990	818.106
17991	787.773
17992	833.053
17993	811.952
17994	805.358
17995	818.985
17996	787.334
17997	830.855
17998	820.744
17999	798.324
18000	827.778
18001	794.368
18002	822.942
18003	806.237
18004	773.706
18005	824.261
18006	801.401
18007	815.908
18008	820.744
18009	788.213
18010	837.449
18011	819.865
18012	808.875
18013	829.536
18014	799.643
18015	829.976
18016	812.831
18017	775.025
18018	808.435
18019	780.300
18020	801.841
18021	800.082
18022	768.431
18023	826.898
18024	822.502
18025	815.908
18026	829.536
18027	793.488
18028	833.492
18029	829.536
18030	805.358
18031	836.570
18032	801.401
18033	822.942
18034	833.932
18035	787.773
18036	822.502
18037	801.401
18038	801.841
18039	810.193
18040	776.344
18041	821.183
18042	813.710
18043	794.807
18044	804.918
18045	782.498
18046	829.976
18047	801.401
18048	812.391
18049	821.183
18050	792.609
18051	834.372
18052	825.140
18053	796.566
18054	836.570
18055	808.435
18056	815.908
18057	815.469
18058	782.059
18059	827.338
18060	813.710
18061	787.773
18062	820.744
18063	786.015
18064	822.942
18065	815.469
18066	787.773
18067	829.536
18068	801.401
18069	819.425
18070	813.710
18071	780.300
18072	829.976
18073	811.952
18074	794.807
18075	826.019
18076	797.884
18077	829.976
18078	817.667
18079	787.773
18080	833.492
18081	808.435
18082	808.875
18083	813.710
18084	774.146
18085	821.183
18086	804.918
18087	787.773
18088	824.261
18089	797.884
18090	824.700
18091	823.381
18092	793.049
18093	836.570
18094	822.502
18095	815.908
18096	826.019
18097	787.334
18098	829.976
18099	819.865
18100	794.807
18101	836.570
18102	801.401
18103	810.633
18104	801.401
18105	770.189
18106	819.425
18107	801.401
18108	794.807
18109	831.294
18110	808.435
18111	840.526
18112	832.613
18113	794.807
18114	836.570
18115	797.884
18116	798.324
18117	804.039
18118	769.750
18119	829.976
18120	821.183
18121	801.841
18122	833.053
18123	808.435
18124	829.976
18125	810.633
18126	764.914
18127	815.029
18128	787.334
18129	801.841
18130	822.502
18131	822.502
18132	872.178
18133	833.053
18134	787.773
18135	801.401
18136	773.266
18137	787.773
18138	783.817
18139	756.122
18140	807.556
18141	801.401
18142	808.875
18143	849.758
18144	818.985
18145	849.318
18146	811.952
18147	815.908
18148	818.985
18149	789.971
18150	834.372
18151	815.469
18152	794.807
18153	826.019
18154	787.334
18155	829.976
18156	824.700
18157	789.971
18158	836.570
18159	815.469
18160	805.358
18161	815.469
18162	782.059
18163	836.130
18164	820.744
18165	787.773
18166	818.985
18167	787.334
18168	819.425
18169	821.183
18170	787.773
18171	835.690
18172	811.952
18173	808.875
18174	826.898
18175	790.851
18176	829.976
18177	806.237
18178	773.706
18179	808.875
18180	783.817
18181	822.942
18182	825.580
18183	788.653
18184	833.053
18185	818.985
18186	794.807
18187	813.710
18188	783.817
18189	818.985
18190	812.391
18191	775.464
18192	815.469
18193	783.817
18194	815.908
18195	835.690
18196	810.633
18197	857.671
18198	815.469
18199	817.667
18200	808.435
18201	780.740
18202	824.700
18203	794.368
18204	787.773
18205	804.039
18206	771.508
18207	821.183
18208	832.613
18209	811.512
18210	843.603
18211	801.401
18212	815.908
18213	821.183
18214	790.851
18215	837.009
18216	820.744
18217	815.908
18218	833.053
18219	787.334
18220	801.401
18221	798.324
18222	773.706
18223	832.174
18224	800.962
18225	798.324
18226	797.884
18227	766.233
18228	822.502
18229	816.787
18230	789.092
18231	843.603
18232	822.502
18233	844.043
18234	834.372
18235	800.522
18236	845.801
18237	819.865
18238	801.841
18239	821.623
18240	785.575
18241	815.908
18242	811.512
18243	787.773
18244	840.966
18245	817.667
18246	808.875
18247	822.502
18248	766.672
18249	834.372
18250	801.401
18251	801.841
18252	804.918
18253	764.474
18254	808.875
18255	801.401
18256	777.223
18257	829.536
18258	808.435
18259	829.976
18260	833.053
18261	801.401
18262	840.087
18263	831.294
18264	803.599
18265	840.087
18266	794.368
18267	815.908
18268	796.126
18269	774.585
18270	851.516
18271	843.603
18272	829.976
18273	836.570
18274	783.817
18275	810.633
18276	789.532
18277	752.605
18278	801.401
18279	787.334
18280	801.841
18281	826.019
18282	797.884
18283	844.922
18284	839.647
18285	803.599
18286	815.469
18287	762.716
18288	764.914
18289	771.508
18290	743.813
18291	794.368
18292	783.817
18293	787.773
18294	836.570
18295	825.140
18296	858.110
18297	845.801
18298	819.425
18299	898.994
18300	843.603
18301	808.875
18302	813.710
18303	773.706
18304	819.425
18305	801.401
18306	777.223
18307	808.435
18308	780.300
18309	823.821
18310	825.580
18311	794.368
18312	853.275
18313	837.009
18314	815.908
18315	822.502
18316	772.387
18317	799.203
18318	794.807
18319	787.773
18320	842.285
18321	811.952
18322	791.290
18323	821.623
18324	850.637
18325	879.211
18326	833.932
18327	798.324
18328	817.227
18329	783.817
18330	808.875
18331	798.324
18332	759.639
18333	807.116
18334	794.368
18335	787.773
18336	822.502
18337	774.146
18338	844.043
18339	902.071
18340	795.686
18341	765.354
18342	716.997
18343	717.437
18344	759.199
18345	773.706
18346	844.043
18347	848.439
18348	826.459
18349	878.772
18350	811.952
18351	854.594
18352	845.801
18353	801.841
18354	838.328
18355	871.738
18356	953.065
18357	908.665
18358	798.324
18359	787.773
18360	804.918
18361	801.841
18362	771.948
18363	699.413
18364	747.330
18365	798.324
18366	773.706
18367	837.009
18368	780.300
18369	773.706
18370	773.706
18371	738.098
18372	773.706
18373	753.484
18374	746.451
18375	811.952
18376	787.334
18377	798.324
18378	886.245
18379	813.710
18380	829.976
18381	828.217
18382	844.043
18383	963.176
18384	920.974
18385	858.110
18386	811.952
18387	752.605
18388	802.280
18389	806.677
18390	851.077
18391	913.940
18392	857.671
18393	794.807
18394	714.359
18395	650.177
18396	706.886
18397	702.930
18398	745.571
18399	933.283
18400	963.176
18401	902.071
18402	838.768
18403	775.025
18404	842.285
18405	821.623
18406	787.773
18407	768.870
18408	753.924
18409	819.425
18410	802.720
18411	773.706
18412	806.237
18413	794.368
18414	822.942
18415	859.869
18416	815.469
18417	822.942
18418	787.334
18419	745.571
18420	815.469
18421	860.308
18422	858.110
18423	829.976
18424	837.009
18425	848.439
18426	779.421
18427	745.571
18428	834.811
18429	803.599
18430	794.807
18431	777.223
18432	886.245
18433	931.525
18434	724.031
18435	678.751
18436	702.930
18437	797.445
18438	829.976
18439	787.334
18440	763.156
18441	818.985
18442	829.536
18443	942.515
18444	918.776
18445	822.942
18446	894.158
18447	815.469
18448	775.464
18449	764.474
18450	736.340
18451	789.092
18452	787.334
18453	814.150
18454	773.706
18455	755.682
18456	825.580
18457	818.985
18458	805.358
18459	776.783
18460	745.132
18461	828.217
18462	882.289
18463	980.760
18464	899.433
18465	759.199
18466	745.571
18467	790.851
18468	796.126
18469	872.178
18470	913.940
18471	949.548
18472	1019.446
18473	1068.682
18474	875.695
18475	613.250
18476	523.570
18477	717.437
18478	759.199
18479	655.013
18480	604.458
18481	646.660
18482	773.706
18483	970.210
18484	949.109
18485	812.391
18486	928.008
18487	822.942
18488	632.593
18489	625.559
18490	717.437
18491	745.132
18492	753.484
18493	840.087
18494	885.806
18495	967.133
18496	906.907
18497	787.334
18498	794.807
18499	794.807
18500	773.706
18501	841.845
18502	848.879
18503	822.942
18504	818.985
18505	787.334
18506	815.908
18507	892.839
18508	930.206
18509	1175.945
18510	1139.018
18511	900.312
18512	643.583
18513	523.570
18514	726.229
18515	752.165
18516	661.167
18517	671.278
18518	658.969
18519	752.605
18520	798.324
18521	794.807
18522	873.497
18523	871.738
18524	910.863
18525	913.940
18526	887.564
18527	752.605
18528	710.403
18529	743.373
18530	912.621
18531	745.132
18532	696.335
18533	752.165
18534	762.716
18535	893.279
18536	892.839
18537	766.672
18538	787.334
18539	815.469
18540	858.110
18541	936.800
18542	921.853
18543	878.332
18544	818.985
18545	1033.953
18546	878.772
18547	632.593
18548	669.080
18549	730.185
18550	768.431
18551	906.907
18552	855.912
18553	826.459
18554	885.806
18555	773.706
18556	745.132
18557	674.795
18558	794.807
18559	908.225
18560	872.617
18561	854.594
18562	722.272
18563	590.830
18564	581.598
18565	629.076
18566	771.948
18567	831.294
18568	917.457
18569	973.727
18570	836.570
18571	822.942
18572	896.356
18573	881.849
18574	959.220
18575	1007.137
18576	742.054
18577	653.694
18578	674.795
18579	984.717
18580	1146.492
18581	732.383
18582	623.361
18583	639.626
18584	759.639
18585	742.934
18586	660.727
18587	759.639
18588	754.363
18589	780.740
18590	930.645
18591	891.081
18592	851.077
18593	854.154
18594	864.704
18595	935.481
18596	898.554
18597	787.773
18598	797.884
18599	826.019
18600	949.548
18601	794.368
18602	632.593
18603	731.504
18604	773.706
18605	749.088
18606	794.368
18607	787.334
18608	787.773
18609	774.146
18610	878.772
18611	962.297
18612	791.730
18613	705.128
18614	783.817
18615	762.716
18616	847.560
18617	935.481
18618	787.773
18619	910.423
18620	895.477
18621	757.880
18622	1005.378
18623	1124.951
18624	787.773
18625	541.155
18626	527.527
18627	660.727
18628	716.997
18629	742.054
18630	734.581
18631	709.963
18632	793.928
18633	831.294
18634	861.627
18635	875.255
18636	838.768
18637	829.976
18638	837.449
18639	886.245
18640	962.297
18641	928.008
18642	876.574
18643	893.718
18644	764.474
18645	801.841
18646	825.580
18647	738.538
18648	783.817
18649	787.334
18650	824.700
18651	944.713
18652	972.847
18653	787.773
18654	651.935
18655	675.234
18656	741.615
18657	867.782
18658	829.096
18659	731.064
18660	949.548
18661	936.800
18662	780.740
18663	780.300
18664	673.036
18665	618.965
18666	723.151
18667	785.575
18668	780.740
18669	717.437
18670	692.819
18671	782.938
18672	899.873
18673	1090.222
18674	1131.985
18675	824.261
18676	759.639
18677	793.928
18678	901.192
18679	1146.052
18680	908.665
18681	661.167
18682	638.747
18683	586.874
18684	650.616
18685	774.585
18686	697.215
18687	724.031
18688	646.660
18689	654.133
18690	762.716
18691	815.469
18692	953.065
18693	979.002
18694	882.728
18695	1001.861
18696	1054.614
18697	949.548
18698	776.783
18699	669.520
18700	720.953
18701	783.817
18702	801.841
18703	793.928
18704	787.334
18705	735.021
18706	753.924
18707	774.146
18708	865.144
18709	889.322
18710	889.762
18711	1003.620
18712	1026.479
18713	949.548
18714	861.188
18715	625.559
18716	745.132
18717	695.896
18718	590.830
18719	667.761
18720	764.474
18721	858.110
18722	821.623
18723	939.437
18724	887.124
18725	615.008
18726	562.695
18727	787.334
18728	815.469
18729	815.908
18730	808.435
18731	795.247
18732	931.964
18733	928.008
18734	956.582
18735	1018.566
18736	903.390
18737	752.605
18738	710.403
18739	837.009
18740	834.372
18741	731.064
18742	696.335
18743	725.789
18744	810.193
18745	847.560
18746	780.740
18747	727.987
18748	855.033
18749	991.311
18750	963.616
18751	906.907
18752	579.840
18753	597.424
18754	699.852
18755	748.649
18756	896.356
18757	1005.378
18758	791.290
18759	685.785
18760	745.571
18761	773.266
18762	780.300
18763	801.841
18764	843.164
18765	966.693
18766	1048.020
18767	840.087
18768	703.369
18769	798.764
18770	833.053
18771	752.605
18772	698.533
18773	662.486
18774	759.639
18775	841.845
18776	872.178
18777	898.115
18778	857.671
18779	858.550
18780	861.188
18781	908.665
18782	949.548
18783	892.839
18784	928.447
18785	1137.260
18786	811.952
18787	585.555
18788	525.768
18789	535.440
18790	625.559
18791	636.109
18792	689.302
18793	843.603
18794	882.289
18795	896.796
18796	919.655
18797	736.779
18798	771.508
18799	787.334
18800	808.875
18801	843.603
18802	850.637
18803	1055.054
18804	973.727
18805	756.122
18806	757.441
18807	671.278
18808	706.886
18809	760.518
18810	791.730
18811	942.515
18812	986.036
18813	935.481
18814	913.940
18815	815.469
18816	854.594
18817	847.120
18818	775.025
18819	815.908
18820	742.494
18821	689.302
18822	790.851
18823	757.441
18824	773.706
18825	761.397
18826	734.142
18827	877.453
18828	857.671
18829	773.706
18830	812.831
18831	843.603
18832	875.695
18833	760.958
18834	889.322
18835	1056.812
18836	919.655
18837	759.639
18838	602.699
18839	534.121
18840	587.313
18841	633.911
18842	602.260
18843	723.591
18844	826.019
18845	872.178
18846	891.081
18847	913.940
18848	1055.054
18849	896.796
18850	803.599
18851	890.641
18852	938.558
18853	877.453
18854	942.075
18855	1010.654
18856	1069.121
18857	798.324
18858	680.510
18859	702.930
18860	702.930
18861	675.234
18862	702.930
18863	759.199
18864	822.502
18865	745.132
18866	717.437
18867	731.943
18868	741.615
18869	984.717
18870	1111.323
18871	778.981
18872	695.896
18873	759.199
18874	914.380
18875	862.946
18876	627.317
18877	638.307
18878	724.470
18879	748.209
18880	829.536
18881	892.839
18882	865.144
18883	767.991
18884	778.542
18885	865.144
18886	834.811
18887	787.773
18888	836.570
18889	855.912
18890	907.346
18891	907.786
18892	898.994
18893	998.784
18894	911.742
18895	872.178
18896	793.488
18897	716.997
18898	736.779
18899	687.543
18900	647.100
18901	761.397
18902	776.783
18903	763.156
18904	787.334
18905	827.778
18906	858.110
18907	837.009
18908	840.526
18909	1069.121
18910	910.423
18911	910.863
18912	688.862
18913	569.289
18914	682.268
18915	803.599
18916	903.829
18917	873.497
18918	671.278
18919	618.965
18920	739.856
18921	674.795
18922	713.920
18923	743.813
18924	761.397
18925	862.946
18926	857.671
18927	787.773
18928	787.334
18929	829.536
18930	949.548
18931	984.717
18932	1028.677
18933	1146.492
18934	920.974
18935	794.807
18936	794.368
18937	861.188
18938	956.582
18939	868.221
18940	773.706
18941	667.761
18942	590.391
18943	634.351
18944	686.224
18945	684.466
18946	759.639
18947	748.649
18948	791.290
18949	894.598
18950	840.087
18951	854.594
18952	840.087
18953	848.879
18954	872.178
18955	813.710
18956	801.841
18957	817.227
18958	758.320
18959	791.290
18960	799.643
18961	770.189
18962	829.536
18963	829.536
18964	815.908
18965	836.130
18966	833.053
18967	865.144
18968	833.053
18969	921.414
18970	985.156
18971	896.356
18972	933.723
18973	793.049
18974	634.791
18975	632.593
18976	639.626
18977	657.650
18978	703.369
18979	715.239
18980	773.706
18981	852.835
18982	894.158
18983	831.294
18984	794.368
18985	803.160
18986	850.637
18987	826.019
18988	872.178
18989	857.671
18990	819.425
18991	871.299
18992	854.154
18993	844.043
18994	852.396
18995	815.469
18996	844.043
18997	830.855
18998	795.686
18999	833.053
19000	801.401
19001	805.358
19002	810.193
19003	790.851
19004	845.801
19005	822.502
19006	773.706
19007	807.995
19008	783.817
19009	780.740
19010	786.455
19011	748.649
19012	803.599
19013	829.536
19014	801.841
19015	836.570
19016	857.671
19017	837.009
19018	794.368
19019	767.991
19020	815.908
19021	771.948
19022	752.605
19023	801.401
19024	801.401
19025	805.358
19026	783.817
19027	760.078
19028	815.469
19029	810.633
19030	777.223
19031	804.918
19032	780.300
19033	833.492
19034	877.453
19035	855.473
19036	872.617
19037	834.372
19038	829.976
19039	843.603
19040	818.985
19041	822.942
19042	803.599
19043	778.981
19044	827.338
19045	811.952
19046	837.009
19047	862.946
19048	815.469
19049	822.942
19050	784.257
19051	742.054
19052	785.575
19053	778.981
19054	801.841
19055	796.126
19056	745.132
19057	794.807
19058	793.928
19059	773.706
19060	833.053
19061	818.985
19062	829.976
19063	838.328
19064	799.643
19065	840.526
19066	829.536
19067	819.425
19068	835.690
19069	789.532
19070	829.976
19071	808.435
19072	787.773
19073	807.556
19074	773.266
19075	808.875
19076	804.918
19077	785.136
19078	838.768
19079	819.865
19080	803.599
19081	833.053
19082	801.401
19083	826.459
19084	822.502
19085	786.455
19086	833.932
19087	821.183
19088	794.807
19089	832.613
19090	801.401
19091	824.700
19092	825.140
19093	791.730
19094	838.768
19095	822.502
19096	801.841
19097	836.570
19098	801.401
19099	815.908
19100	811.073
19101	776.344
19102	821.183
19103	805.358
19104	787.773
19105	820.744
19106	794.368
19107	815.908
19108	809.754
19109	782.938
19110	832.613
19111	825.580
19112	800.082
19113	838.328
19114	801.401
19115	815.908
19116	816.787
19117	782.059
19118	829.976
19119	813.710
19120	787.773
19121	822.502
19122	794.368
19123	819.425
19124	817.227
19125	780.300
19126	833.492
19127	826.019
19128	801.841
19129	836.570
19130	801.401
19131	822.942
19132	838.768
19133	804.918
19134	826.459
19135	813.710
19136	803.599
19137	808.435
19138	769.750
19139	787.773
19140	788.213
19141	766.233
19142	822.942
19143	811.073
19144	787.773
19145	829.536
19146	787.334
19147	819.425
19148	821.183
19149	789.971
19150	838.768
19151	818.985
19152	787.773
19153	826.459
19154	808.435
19155	829.536
19156	822.502
19157	787.773
19158	832.613
19159	804.918
19160	794.807
19161	832.174
19162	794.368
19163	829.976
19164	820.304
19165	787.773
19166	833.053
19167	808.435
19168	808.875
19169	824.261
19170	773.266
19171	833.053
19172	808.435
19173	815.908
19174	814.589
19175	783.817
19176	822.942
19177	812.391
19178	787.773
19179	825.580
19180	797.884
19181	815.908
19182	822.502
19183	798.764
19184	837.009
19185	816.348
19186	774.146
19187	815.029
19188	787.334
19189	801.841
19190	814.589
19191	781.619
19192	824.700
19193	815.469
19194	787.773
19195	829.536
19196	801.401
19197	815.908
19198	820.744
19199	783.817
19200	835.251
19201	827.778
19202	801.841
19203	843.164
19204	815.469
19205	829.976
19206	825.140
19207	789.971
19208	834.372
19209	820.304
19210	794.807
19211	826.019
19212	801.401
19213	819.425
19214	815.029
19215	782.938
19216	833.492
19217	822.502
19218	794.807
19219	833.053
19220	800.522
19221	807.116
19222	811.952
19223	775.025
19224	821.183
19225	808.435
19226	787.773
19227	827.778
19228	801.401
19229	814.150
19230	818.985
19231	785.575
19232	829.976
19233	817.227
19234	787.773
19235	819.865
19236	794.368
19237	805.358
19238	817.227
19239	782.059
19240	815.908
19241	803.599
19242	774.146
19243	829.536
19244	815.469
19245	819.425
19246	844.043
19247	811.952
19248	837.009
19249	821.183
19250	782.498
19251	833.053
19252	815.469
19253	787.773
19254	816.787
19255	787.334
19256	819.425
19257	814.150
19258	782.938
19259	829.976
19260	815.469
19261	791.290
19262	822.502
19263	797.884
19264	819.425
19265	816.348
19266	782.059
19267	831.734
19268	810.193
19269	794.807
19270	814.589
19271	771.508
19272	824.700
19273	815.469
19274	801.841
19275	818.985
19276	783.817
19277	822.942
19278	813.710
19279	787.773
19280	862.506
19281	843.603
19282	815.908
19283	815.469
19284	771.508
19285	801.841
19286	794.368
19287	759.639
19288	807.995
19289	787.334
19290	773.706
19291	811.952
19292	800.522
19293	826.019
19294	823.821
19295	790.851
19296	840.087
19297	829.096
19298	808.875
19299	833.053
19300	808.435
19301	822.942
19302	822.502
19303	787.773
19304	840.526
19305	818.985
19306	808.875
19307	836.570
19308	801.401
19309	819.425
19310	821.183
19311	787.334
19312	829.976
19313	815.469
19314	787.773
19315	820.744
19316	794.368
19317	810.633
19318	813.710
19319	783.377
19320	824.700
19321	812.391
19322	787.773
19323	827.778
19324	801.401
19325	815.908
19326	821.623
19327	789.532
19328	829.976
19329	818.106
19330	787.773
19331	829.536
19332	801.401
19333	808.875
19334	815.469
19335	785.575
19336	828.217
19337	815.908
19338	787.773
19339	831.294
19340	808.435
19341	808.875
19342	829.536
19343	794.368
19344	824.700
19345	819.425
19346	787.773
19347	834.811
19348	811.952
19349	801.841
19350	822.502
19351	787.334
19352	819.425
19353	815.029
19354	780.740
19355	829.976
19356	815.029
19357	807.116
19358	820.744
19359	787.334
19360	815.908
19361	806.237
19362	773.266
19363	822.942
19364	808.435
19365	798.324
19366	820.744
19367	783.817
19368	822.942
19369	812.391
19370	775.025
19371	829.536
19372	808.435
19373	808.875
19374	822.502
19375	780.740
19376	836.570
19377	811.952
19378	815.908
19379	824.700
19380	789.092
19381	831.734
19382	817.667
19383	787.773
19384	831.294
19385	813.710
19386	808.875
19387	821.183
19388	794.368
19389	829.976
19390	822.063
19391	790.411
19392	837.449
19393	815.469
19394	795.247
19395	822.063
19396	782.059
19397	815.908
19398	813.271
19399	783.817
19400	835.251
19401	818.985
19402	804.478
19403	840.087
19404	802.280
19405	824.700
19406	815.908
19407	781.619
19408	827.338
19409	815.469
19410	787.773
19411	824.261
19412	787.334
19413	815.908
19414	818.106
19415	783.817
19416	831.294
19417	815.469
19418	794.807
19419	828.657
19420	794.368
19421	815.908
19422	806.677
19423	771.508
19424	822.502
19425	806.677
19426	787.773
19427	822.502
19428	794.368
19429	815.469
19430	812.831
19431	785.136
19432	831.734
19433	818.985
19434	791.290
19435	829.536
19436	801.401
19437	819.425
19438	816.348
19439	783.377
19440	835.251
19441	815.469
19442	801.841
19443	827.778
19444	797.445
19445	829.976
19446	822.502
19447	788.653
19448	837.009
19449	815.469
19450	801.841
19451	822.502
19452	787.334
19453	815.908
19454	814.150
19455	779.421
19456	830.415
19457	811.952
19458	794.807
19459	822.502
19460	794.368
19461	819.425
19462	815.908
19463	780.740
19464	833.492
19465	815.469
19466	791.290
19467	826.019
19468	794.368
19469	819.425
19470	815.908
19471	787.773
19472	835.251
19473	813.710
19474	794.807
19475	822.502
19476	778.542
19477	826.459
19478	815.469
19479	801.841
19480	826.019
19481	799.643
19482	819.425
19483	818.985
19484	786.455
19485	833.492
19486	818.985
19487	787.773
19488	828.657
19489	801.401
19490	815.908
19491	820.744
19492	790.851
19493	830.855
19494	818.546
19495	787.773
19496	829.976
19497	801.401
19498	798.324
19499	815.469
19500	787.334
19501	815.908
19502	809.754
19503	775.025
19504	822.502
19505	808.435
19506	798.324
19507	818.985
19508	787.334
19509	826.459
19510	815.908
19511	784.257
19512	830.415
19513	812.391
19514	805.358
19515	818.985
19516	787.334
19517	819.425
19518	811.512
19519	776.783
19520	829.976
19521	814.150
19522	801.841
19523	826.459
19524	801.401
19525	837.009
19526	832.174
19527	797.005
19528	847.120
19529	829.976
19530	805.358
19531	817.667
19532	780.300
19533	815.908
19534	808.875
19535	775.464
19536	822.502
19537	794.368
19538	801.841
19539	818.985
19540	787.334
19541	829.976
19542	822.063
19543	788.213
19544	839.647
19545	818.546
19546	808.875
19547	822.502
19548	787.334
19549	815.908
19550	807.116
19551	773.706
19552	818.985
19553	796.126
19554	787.773
19555	815.908
19556	787.334
19557	817.667
19558	815.908
19559	789.092
19560	841.405
19561	829.976
19562	808.875
19563	836.570
19564	801.401
19565	817.667
19566	805.797
19567	769.750
19568	819.425
19569	801.401
19570	787.773
19571	810.633
19572	787.334
19573	822.942
19574	825.140
19575	793.928
19576	845.801
19577	833.932
19578	809.754
19579	835.690
19580	790.851
19581	838.768
19582	820.744
19583	794.807
19584	822.502
19585	787.334
19586	808.875
19587	804.918
19588	778.542
19589	829.976
19590	818.985
19591	794.807
19592	835.690
19593	808.435
19594	829.976
19595	827.778
19596	794.807
19597	835.251
19598	818.985
19599	787.773
19600	811.952
19601	787.334
19602	798.324
19603	801.401
19604	769.750
19605	826.459
19606	815.469
19607	787.773
19608	835.690
19609	811.952
19610	829.976
19611	829.976
19612	797.445
19613	840.526
19614	825.140
19615	791.290
19616	822.502
19617	787.334
19618	805.358
19619	801.401
19620	766.233
19621	817.667
19622	808.435
19623	787.773
19624	829.536
19625	801.401
19626	822.942
19627	827.778
19628	791.730
19629	838.328
19630	826.019
19631	798.324
19632	822.502
19633	787.334
19634	815.908
19635	808.435
19636	773.266
19637	821.183
19638	805.797
19639	794.807
19640	818.985
19641	794.368
19642	829.976
19643	826.459
19644	798.324
19645	844.043
19646	818.985
19647	805.358
19648	822.502
19649	783.817
19650	815.908
19651	804.918
19652	768.431
19653	815.469
19654	801.401
19655	787.773
19656	818.985
19657	794.368
19658	837.009
19659	829.976
19660	800.962
19661	845.801
19662	827.778
19663	815.908
19664	829.536
19665	792.609
19666	822.942
19667	809.314
19668	777.223
19669	820.744
19670	790.851
19671	794.807
19672	810.193
19673	782.059
19674	830.855
19675	819.865
19676	793.049
19677	836.570
19678	813.710
19679	815.908
19680	818.985
19681	766.672
19682	818.985
19683	797.884
19684	808.875
19685	811.952
19686	773.706
19687	828.217
19688	815.469
19689	794.807
19690	827.778
19691	801.401
19692	822.942
19693	825.580
19694	794.368
19695	844.043
19696	826.019
19697	794.807
19698	829.536
19699	797.884
19700	805.358
19701	806.677
19702	770.629
19703	815.908
19704	805.797
19705	783.817
19706	822.502
19707	801.401
19708	819.425
19709	826.019
19710	797.884
19711	844.922
19712	831.294
19713	801.841
19714	834.811
19715	801.401
19716	815.908
19717	810.193
19718	775.025
19719	817.667
19720	804.918
19721	782.059
19722	822.502
19723	797.884
19724	815.908
19725	822.502
19726	792.609
19727	840.526
19728	829.536
19729	794.807
19730	834.811
19731	801.401
19732	805.358
19733	808.435
19734	772.827
19735	815.908
19736	804.918
19737	773.706
19738	821.183
19739	797.884
19740	810.633
19741	822.502
19742	792.609
19743	837.009
19744	828.217
19745	800.082
19746	843.603
19747	811.952
19748	815.908
19749	817.227
19750	782.059
19751	822.942
19752	808.875
19753	778.981
19754	815.469
19755	797.884
19756	808.875
19757	818.106
19758	789.092
19759	837.009
19760	829.976
19761	801.841
19762	836.570
19763	811.952
19764	815.908
19765	812.831
19766	776.783
19767	819.425
19768	805.358
19769	773.706
19770	815.469
19771	787.334
19772	808.875
19773	815.469
19774	790.851
19775	837.009
19776	827.778
19777	800.082
19778	846.681
19779	822.502
19780	819.425
19781	825.580
19782	787.334
19783	822.942
19784	771.948
19785	801.841
19786	806.677
19787	774.146
19788	821.623
19789	814.589
19790	787.773
19791	829.536
19792	801.401
19793	824.700
19794	829.976
19795	796.566
19796	844.043
19797	825.580
19798	791.290
19799	822.502
19800	794.368
19801	805.358
19802	804.039
19803	769.750
19804	818.106
19805	814.150
19806	789.532
19807	829.536
19808	804.918
19809	822.942
19810	827.778
19811	795.686
19812	837.009
19813	826.019
19814	791.290
19815	829.536
19816	801.401
19817	801.841
19818	807.556
19819	769.750
19820	808.435
19821	804.039
19822	780.740
19823	826.019
19824	801.401
19825	819.425
19826	826.898
19827	794.368
19828	844.043
19829	826.898
19830	797.884
19831	833.053
19832	801.401
19833	815.908
19834	810.193
19835	776.783
19836	817.227
19837	808.435
19838	787.773
19839	829.536
19840	801.401
19841	815.908
19842	827.338
19843	797.884
19844	844.043
19845	831.294
19846	799.203
19847	841.845
19848	813.710
19849	805.358
19850	813.710
19851	782.059
19852	816.348
19853	804.918
19854	773.706
19855	826.019
19856	806.677
19857	808.875
19858	826.019
19859	794.368
19860	837.009
19861	829.976
19862	791.730
19863	839.647
19864	808.435
19865	805.358
19866	811.952
19867	774.146
19868	815.908
19869	804.478
19870	768.431
19871	829.976
19872	801.401
19873	801.841
19874	818.985
19875	787.334
19876	833.492
19877	830.415
19878	795.247
19879	838.328
19880	818.985
19881	808.875
19882	815.469
19883	783.817
19884	815.908
19885	808.875
19886	766.233
19887	803.160
19888	783.817
19889	826.459
19890	818.546
19891	794.807
19892	836.570
19893	815.469
19894	815.908
19895	825.580
19896	787.773
19897	829.976
19898	816.787
19899	780.740
19900	822.502
19901	794.368
19902	791.290
19903	808.435
19904	780.300
19905	821.183
19906	812.831
19907	787.773
19908	837.449
19909	815.469
19910	815.908
19911	829.976
19912	796.126
19913	837.009
19914	823.821
19915	787.773
19916	822.502
19917	790.851
19918	798.324
19919	808.435
19920	773.706
19921	819.425
19922	814.150
19923	789.532
19924	831.294
19925	801.401
19926	822.942
19927	827.778
19928	794.807
19929	840.526
19930	826.459
19931	791.290
19932	825.580
19933	794.368
19934	801.841
19935	806.677
19936	775.025
19937	815.908
19938	811.512
19939	781.619
19940	836.570
19941	815.469
19942	815.908
19943	833.053
19944	801.401
19945	829.976
19946	826.019
19947	792.169
19948	833.053
19949	810.193
19950	791.290
19951	815.469
19952	787.334
19953	809.754
19954	801.401
19955	778.981
19956	831.734
19957	813.710
19958	801.841
19959	827.778
19960	801.401
19961	829.976
19962	815.908
19963	786.015
19964	829.976
19965	808.435
19966	787.773
19967	815.469
19968	783.817
19969	808.875
19970	803.599
19971	775.025
19972	828.217
19973	808.435
19974	801.841
19975	826.019
19976	794.368
19977	824.700
19978	818.985
19979	791.290
19980	838.768
19981	820.744
19982	794.807
19983	822.502
19984	794.368
19985	815.908
19986	815.029
19987	778.102
19988	829.976
19989	797.884
19990	815.908
19991	829.536
19992	797.884
19993	844.043
19994	837.009
19995	801.841
19996	843.603
19997	813.710
19998	815.908
19999	818.985
20000	787.334
20001	833.492
20002	822.063
20003	787.773
20004	838.328
20005	815.469
20006	819.425
20007	833.053
20008	801.401
20009	844.043
20010	829.976
20011	797.884
20012	843.603
20013	815.469
20014	808.875
20015	818.985
20016	780.300
20017	815.908
20018	805.358
20019	774.146
20020	815.469
20021	801.401
20022	801.841
20023	818.985
20024	790.851
20025	829.976
20026	823.821
20027	792.169
20028	843.164
20029	818.985
20030	801.841
20031	822.502
20032	786.455
20033	815.908
20034	808.875
20035	773.706
20036	821.183
20037	801.841
20038	794.807
20039	813.710
20040	785.575
20041	822.942
20042	817.667
20043	829.976
20044	818.985
20045	780.300
20046	808.875
20047	822.502
20048	797.884
20049	773.706
20050	819.425
20051	806.677
20052	773.706
20053	822.942
20054	801.401
20055	787.773
20056	829.536
20057	813.710
20058	791.290
20059	833.053
20060	809.314
20061	818.985
20062	823.381
20063	787.334
20064	829.096
20065	815.908
20066	777.223
20067	821.623
20068	807.116
20069	798.324
20070	803.599
20071	776.783
20072	819.425
20073	812.831
20074	787.773
20075	837.888
20076	815.469
20077	801.841
20078	827.778
20079	801.401
20080	822.942
20081	818.985
20082	780.300
20083	828.217
20084	811.073
20085	787.773
20086	818.985
20087	797.884
20088	808.875
20089	819.865
20090	789.971
20091	837.009
20092	813.710
20093	824.700
20094	829.536
20095	796.126
20096	843.603
20097	826.019
20098	790.411
20099	829.536
20100	801.401
20101	801.841
20102	818.985
20103	785.136
20104	815.908
20105	810.633
20106	787.773
20107	832.174
20108	815.469
20109	798.324
20110	833.053
20111	801.401
20112	826.459
20113	818.985
20114	782.498
20115	830.855
20116	813.710
20117	780.740
20118	815.469
20119	787.334
20120	803.599
20121	815.469
20122	782.059
20123	835.251
20124	824.261
20125	798.324
20126	840.087
20127	815.469
20128	819.425
20129	829.096
20130	790.851
20131	829.976
20132	815.908
20133	778.102
20134	827.338
20135	801.401
20136	789.532
20137	811.952
20138	787.334
20139	822.942
20140	815.908
20141	787.773
20142	835.251
20143	818.985
20144	808.875
20145	836.570
20146	804.918
20147	822.942
20148	817.227
20149	782.059
20150	826.459
20151	810.193
20152	780.740
20153	815.469
20154	789.092
20155	815.908
20156	817.227
20157	785.136
20158	833.492
20159	821.623
20160	794.807
20161	843.603
20162	815.908
20163	815.908
20164	824.261
20165	787.334
20166	819.425
20167	806.237
20168	773.706
20169	814.589
20170	787.334
20171	801.841
20172	813.710
20173	780.300
20174	826.459
20175	820.304
20176	791.290
20177	841.405
20178	818.985
20179	808.875
20180	826.019
20181	787.334
20182	819.425
20183	808.875
20184	770.189
20185	819.425
20186	808.435
20187	787.773
20188	821.623
20189	787.334
20190	815.908
20191	815.469
20192	785.575
20193	829.976
20194	785.575
20195	815.908
20196	822.502
20197	787.334
20198	824.700
20199	812.391
20200	775.904
20201	825.140
20202	801.401
20203	798.324
20204	817.667
20205	787.334
20206	819.425
20207	816.348
20208	788.213
20209	837.009
20210	826.019
20211	797.884
20212	834.811
20213	801.401
20214	815.908
20215	812.831
20216	776.783
20217	819.425
20218	804.918
20219	778.981
20220	822.502
20221	801.401
20222	801.841
20223	818.985
20224	787.334
20225	829.976
20226	826.019
20227	794.807
20228	842.285
20229	812.391
20230	787.773
20231	815.469
20232	780.300
20233	808.875
20234	807.116
20235	774.585
20236	822.063
20237	804.918
20238	787.773
20239	829.536
20240	808.435
20241	822.942
20242	831.294
20243	801.401
20244	844.043
20245	833.053
20246	808.875
20247	840.087
20248	808.435
20249	829.976
20250	822.502
20251	786.455
20252	830.855
20253	819.425
20254	789.092
20255	840.087
